[Header]
Application Name	LabSolutions
Version	5.110
Data File Name	C:\Users\User\Desktop\GC Analyses\Jack\Nachusa Grasslands Sampling\T3 Timepoint July 12th\T3_07122022_074.gcd
Output Date	3/14/2023
Output Time	3:43:35 PM

[File Information]
Type	Data File
Generated	3/13/2023 10:45:42 PM
Generated by	System Administrator
Modified	3/13/2023 10:52:19 PM
Modified by	System Administrator

[Sample Information]
Operator Name	System Administrator
Acquired	3/13/2023 10:48:17 PM
Sample Type	0:Unknown
Level	0
Sample Name	074
Sample ID	074
ISTD Amount1	1
ISTD Amount2	1
ISTD Amount3	1
ISTD Amount4	1
ISTD Amount5	1
ISTD Amount6	1
ISTD Amount7	1
ISTD Amount8	1
ISTD Amount9	1
ISTD Amount10	1
ISTD Amount11	1
ISTD Amount12	1
ISTD Amount13	1
ISTD Amount14	1
ISTD Amount15	1
ISTD Amount16	1
ISTD Amount17	1
ISTD Amount18	1
ISTD Amount19	1
ISTD Amount20	1
ISTD Amount21	1
ISTD Amount22	1
ISTD Amount23	1
ISTD Amount24	1
ISTD Amount25	1
ISTD Amount26	1
ISTD Amount27	1
ISTD Amount28	1
ISTD Amount29	1
ISTD Amount30	1
ISTD Amount31	1
ISTD Amount32	1
Sample Amount	1
Dilution Factor	1
Vial#	73
Injection Volume	1
Injection Count	1
Bar Code	

[Original Files]
Data File	C:\Users\User\Desktop\GC Analyses\Jack\Nachusa Grasslands Sampling\T3 Timepoint July 12th\T3_07122022_074.gcd
Method File	C:\LabSolutions\Data\GHG_4min_2022\ghg3_togas_w_acet_4 min_new_int.gcm
Batch File	C:\LabSolutions\Data\AutoSamplerTesting\T3_07122022.gcb
Report Format File	c:\LabSolutions\System\DEFAULT.lsr

[File Description]


[Configuration]
Instrument Name	C0B7VH3-Instrument1
Instrument #	1
Line #	1
# of Detectors	3
Detector ID	DET#1	DET#2	DET#3
Detector Name	FID	PTCD	ECD
# of Channels	1	1	1

[Peak Table(Ch1)]
# of Peaks	3
Peak#	R.Time	I.Time	F.Time	Area	Height	A/H	Conc.	Mark	ID#	Name	k'	Plate #	Plate Ht.	Tailing	Resolution	Sep.Factor	Area Ratio	Height Ratio	Conc. %	Norm Conc.
1	1.476	1.435	1.534	24743	12213	2.026	174.686	   	1	CO	0.000	9641	15.559	1.251	0.000	0.000	0	0	14.266	14.266
2	1.571	1.538	1.622	3954	2048	1.931	76.455	   	2	CH4	0.065	11861	12.647	1.130	1.618	0.000	0	0	6.244	6.244
3	1.996	1.952	2.469	3878442	1861929	2.083	973.384	   	3	CO2	0.353	17278	8.682	1.323	7.182	5.462	0	0	79.491	79.491

[Peak Table(Ch2)]
# of Peaks	0

[Peak Table(Ch3)]
# of Peaks	6
Peak#	R.Time	I.Time	F.Time	Area	Height	A/H	Conc.	Mark	ID#	Name	k'	Plate #	Plate Ht.	Tailing	Resolution	Sep.Factor	Area Ratio	Height Ratio	Conc. %	Norm Conc.
1	2.462	2.227	2.510	3040	737	4.127	0.000	   			0.000	9325	16.086	0.000	0.000	0.000	0	0	0.000	0.000
2	2.528	2.510	2.583	1242	402	3.086	0.000	 V 			0.027	5516	27.193	0.000	0.554	0.000	0	0	0.000	0.000
3	2.598	2.583	2.678	619	189	3.283	0.000	 V 			0.055	2129	70.449	0.000	0.386	2.056	0	0	0.000	0.000
4	2.880	2.807	3.126	18512	4771	3.880	0.473	S  	1	N2O	0.170	13236	11.333	1.579	1.736	3.081	0	0	100.000	100.000
5	3.115	3.060	3.126	146	70	2.093	0.000	T  	2	SF6	0.265	34423	4.358	0.599	2.806	1.561	0	0	0.000	0.000
6	3.327	3.129	3.995	22245	740	30.060	0.000	   	2	SF6	0.351	166	901.858	2.156	0.387	1.326	0	0	0.000	0.000

[Compound Results(Ch1)]
# of IDs	6
ID#	Name	R.Time	Area	Height	Conc.	Curve	3rd	2nd	1st	Constant	Area Ratio	Height Ratio	Conc. %	Norm Conc.
1	CO	1.476	24743	12213	174.686	Linear	0.000000e+00	0.000000e+00	1.416423e+002	0.000000e+00	0	0	14.266	14.266
2	CH4	1.571	3954	2048	76.455	Linear	0.000000e+00	0.000000e+00	5.171738e+001	0.000000e+00	0	0	6.244	6.244
3	CO2	1.996	3878442	1861929	973.384	Linear	0.000000e+00	0.000000e+00	3.984494e+003	0.000000e+00	0	0	79.491	79.491
4	Ethylene	0.000	0	0	0.000	Linear	0.000000e+00	0.000000e+00	0.000000e+00	0.000000e+00	0	0	0.000	0.000
5	Acetylene	0.000	0	0	0.000	Linear	0.000000e+00	0.000000e+00	0.000000e+00	0.000000e+00	0	0	0.000	0.000
6	Ethane	0.000	0	0	0.000	Linear	0.000000e+00	0.000000e+00	0.000000e+00	0.000000e+00	0	0	0.000	0.000

[Compound Results(Ch2)]
# of IDs	5
ID#	Name	R.Time	Area	Height	Conc.	Curve	3rd	2nd	1st	Constant	Area Ratio	Height Ratio	Conc. %	Norm Conc.
1	Hydrogen	0.000	0	0	0.000	Linear	0.000000e+00	0.000000e+00	0.000000e+00	0.000000e+00	0	0	0.000	0.000
2	Oxygen	0.000	0	0	0.000	Linear	0.000000e+00	0.000000e+00	0.000000e+00	0.000000e+00	0	0	0.000	0.000
3	Nitrogen	0.000	0	0	0.000	Linear	0.000000e+00	0.000000e+00	0.000000e+00	0.000000e+00	0	0	0.000	0.000
4	Methane	0.000	0	0	0.000	Linear	0.000000e+00	0.000000e+00	0.000000e+00	0.000000e+00	0	0	0.000	0.000
5	Carbon Monoxide	0.000	0	0	0.000	Linear	0.000000e+00	0.000000e+00	0.000000e+00	0.000000e+00	0	0	0.000	0.000

[Compound Results(Ch3)]
# of IDs	2
ID#	Name	R.Time	Area	Height	Conc.	Curve	3rd	2nd	1st	Constant	Area Ratio	Height Ratio	Conc. %	Norm Conc.
1	N2O	2.880	18512	4771	0.473	Linear	0.000000e+00	0.000000e+00	3.915173e+004	0.000000e+00	0	0	100.000	100.000
2	SF6	3.327	22391	810	0.000	Linear	0.000000e+00	0.000000e+00	0.000000e+00	0.000000e+00	0	0	0.000	0.000

[Group Results(Ch1)]
# of Groups	0

[Group Results(Ch2)]
# of Groups	0

[Group Results(Ch3)]
# of Groups	0

[Chromatogram (Ch1)]
Interval(msec)	220
# of Points	1091
Start Time(min)	0.002
End Time(min)	3.998
R.Time (min)	Intensity
0.00167	-10
0.00533	-15
0.00900	-22
0.01267	-23
0.01633	-22
0.02000	-16
0.02367	-7
0.02733	2
0.03100	9
0.03467	15
0.03833	18
0.04200	20
0.04567	20
0.04933	19
0.05300	16
0.05667	11
0.06033	5
0.06400	0
0.06767	-1
0.07133	-0
0.07500	1
0.07867	4
0.08233	7
0.08600	14
0.08967	23
0.09333	31
0.09700	31
0.10067	26
0.10433	21
0.10800	14
0.11167	5
0.11533	-8
0.11900	-17
0.12267	-19
0.12633	-17
0.13000	-14
0.13367	-8
0.13733	5
0.14100	21
0.14467	30
0.14833	34
0.15200	37
0.15567	31
0.15933	20
0.16300	9
0.16667	2
0.17033	-2
0.17400	-2
0.17767	5
0.18133	10
0.18500	11
0.18867	10
0.19233	14
0.19600	24
0.19967	31
0.20333	27
0.20700	16
0.21067	4
0.21433	-3
0.21800	-4
0.22167	-5
0.22533	-7
0.22900	-4
0.23267	0
0.23633	5
0.24000	4
0.24367	2
0.24733	9
0.25100	16
0.25467	17
0.25833	15
0.26200	16
0.26567	21
0.26933	30
0.27300	37
0.27667	42
0.28033	48
0.28400	55
0.28767	61
0.29133	69
0.29500	77
0.29867	81
0.30233	77
0.30600	71
0.30967	63
0.31333	56
0.31700	54
0.32067	53
0.32433	58
0.32800	64
0.33167	66
0.33533	70
0.33900	81
0.34267	95
0.34633	106
0.35000	112
0.35367	113
0.35733	109
0.36100	103
0.36467	99
0.36833	98
0.37200	95
0.37567	93
0.37933	95
0.38300	91
0.38667	79
0.39033	68
0.39400	64
0.39767	62
0.40133	62
0.40500	58
0.40867	52
0.41233	45
0.41600	41
0.41967	40
0.42333	40
0.42700	42
0.43067	45
0.43433	50
0.43800	53
0.44167	57
0.44533	55
0.44900	48
0.45267	41
0.45633	38
0.46000	35
0.46367	30
0.46733	29
0.47100	28
0.47467	26
0.47833	23
0.48200	24
0.48567	37
0.48933	49
0.49300	52
0.49667	48
0.50033	43
0.50400	38
0.50767	28
0.51133	20
0.51500	17
0.51867	17
0.52233	19
0.52600	21
0.52967	23
0.53333	24
0.53700	23
0.54067	16
0.54433	9
0.54800	7
0.55167	8
0.55533	11
0.55900	16
0.56267	19
0.56633	21
0.57000	23
0.57367	18
0.57733	10
0.58100	1
0.58467	-5
0.58833	-5
0.59200	1
0.59567	12
0.59933	23
0.60300	28
0.60667	28
0.61033	26
0.61400	26
0.61767	28
0.62133	22
0.62500	12
0.62867	5
0.63233	1
0.63600	-3
0.63967	-1
0.64333	8
0.64700	14
0.65067	17
0.65433	18
0.65800	21
0.66167	24
0.66533	24
0.66900	21
0.67267	16
0.67633	16
0.68000	17
0.68367	18
0.68733	20
0.69100	17
0.69467	12
0.69833	9
0.70200	11
0.70567	13
0.70933	16
0.71300	18
0.71667	17
0.72033	15
0.72400	15
0.72767	14
0.73133	15
0.73500	14
0.73867	13
0.74233	13
0.74600	12
0.74967	11
0.75333	8
0.75700	5
0.76067	1
0.76433	2
0.76800	14
0.77167	28
0.77533	33
0.77900	29
0.78267	14
0.78633	-4
0.79000	-14
0.79367	-18
0.79733	-18
0.80100	-18
0.80467	-17
0.80833	-17
0.81200	-17
0.81567	-15
0.81933	-11
0.82300	-5
0.82667	4
0.83033	14
0.83400	20
0.83767	17
0.84133	11
0.84500	8
0.84867	1
0.85233	-4
0.85600	-4
0.85967	-4
0.86333	-4
0.86700	-7
0.87067	-10
0.87433	-13
0.87800	-17
0.88167	-21
0.88533	-24
0.88900	-20
0.89267	-14
0.89633	-11
0.90000	-9
0.90367	-9
0.90733	-7
0.91100	-9
0.91467	-12
0.91833	-13
0.92200	-15
0.92567	-15
0.92933	-13
0.93300	-8
0.93667	-1
0.94033	4
0.94400	7
0.94767	8
0.95133	8
0.95500	10
0.95867	12
0.96233	12
0.96600	10
0.96967	9
0.97333	13
0.97700	16
0.98067	10
0.98433	1
0.98800	-3
0.99167	-2
0.99533	-5
0.99900	-10
1.00267	-13
1.00633	-15
1.01000	-18
1.01367	-20
1.01733	-23
1.02100	-23
1.02467	-20
1.02833	-15
1.03200	-9
1.03567	1
1.03933	5
1.04300	7
1.04667	9
1.05033	9
1.05400	16
1.05767	25
1.06133	30
1.06500	30
1.06867	30
1.07233	32
1.07600	33
1.07967	33
1.08333	33
1.08700	37
1.09067	40
1.09433	37
1.09800	32
1.10167	27
1.10533	25
1.10900	26
1.11267	27
1.11633	30
1.12000	37
1.12367	42
1.12733	42
1.13100	38
1.13467	31
1.13833	26
1.14200	25
1.14567	28
1.14933	33
1.15300	39
1.15667	40
1.16033	38
1.16400	35
1.16767	34
1.17133	32
1.17500	28
1.17867	25
1.18233	24
1.18600	27
1.18967	28
1.19333	23
1.19700	14
1.20067	5
1.20433	1
1.20800	4
1.21167	11
1.21533	16
1.21900	19
1.22267	25
1.22633	32
1.23000	41
1.23367	46
1.23733	46
1.24100	48
1.24467	48
1.24833	43
1.25200	38
1.25567	32
1.25933	28
1.26300	26
1.26667	25
1.27033	24
1.27400	24
1.27767	28
1.28133	29
1.28500	27
1.28867	28
1.29233	31
1.29600	33
1.29967	31
1.30333	29
1.30700	28
1.31067	28
1.31433	25
1.31800	19
1.32167	12
1.32533	5
1.32900	1
1.33267	0
1.33633	1
1.34000	7
1.34367	16
1.34733	23
1.35100	25
1.35467	23
1.35833	22
1.36200	22
1.36567	28
1.36933	32
1.37300	27
1.37667	15
1.38033	3
1.38400	-9
1.38767	-19
1.39133	-24
1.39500	-24
1.39867	-19
1.40233	-6
1.40600	9
1.40967	18
1.41333	18
1.41700	15
1.42067	9
1.42433	1
1.42800	-6
1.43167	-7
1.43533	-3
1.43900	11
1.44267	54
1.44633	199
1.45000	623
1.45367	1647
1.45733	3493
1.46100	5866
1.46467	8216
1.46833	10155
1.47200	11512
1.47567	12187
1.47933	12067
1.48300	11120
1.48667	9526
1.49033	7619
1.49400	5742
1.49767	4123
1.50133	2845
1.50500	1896
1.50867	1219
1.51233	750
1.51600	436
1.51967	233
1.52333	106
1.52700	25
1.53067	-27
1.53433	-61
1.53800	-74
1.54167	-46
1.54533	76
1.54900	341
1.55267	722
1.55633	1136
1.56000	1505
1.56367	1782
1.56733	1947
1.57100	1979
1.57467	1856
1.57833	1595
1.58200	1265
1.58567	937
1.58933	650
1.59300	423
1.59667	256
1.60033	136
1.60400	55
1.60767	3
1.61133	-27
1.61500	-43
1.61867	-53
1.62233	-61
1.62600	-65
1.62967	-66
1.63333	-70
1.63700	-76
1.64067	-80
1.64433	-85
1.64800	-91
1.65167	-91
1.65533	-90
1.65900	-89
1.66267	-84
1.66633	-80
1.67000	-76
1.67367	-74
1.67733	-68
1.68100	-61
1.68467	-62
1.68833	-66
1.69200	-65
1.69567	-59
1.69933	-52
1.70300	-44
1.70667	-44
1.71033	-50
1.71400	-53
1.71767	-52
1.72133	-53
1.72500	-57
1.72867	-57
1.73233	-49
1.73600	-38
1.73967	-35
1.74333	-37
1.74700	-43
1.75067	-48
1.75433	-49
1.75800	-47
1.76167	-45
1.76533	-41
1.76900	-37
1.77267	-33
1.77633	-29
1.78000	-26
1.78367	-27
1.78733	-30
1.79100	-30
1.79467	-30
1.79833	-34
1.80200	-41
1.80567	-49
1.80933	-54
1.81300	-56
1.81667	-53
1.82033	-44
1.82400	-32
1.82767	-27
1.83133	-26
1.83500	-26
1.83867	-26
1.84233	-24
1.84600	-22
1.84967	-20
1.85333	-15
1.85700	-11
1.86067	-10
1.86433	-12
1.86800	-14
1.87167	-13
1.87533	-9
1.87900	-3
1.88267	1
1.88633	2
1.89000	1
1.89367	-2
1.89733	-5
1.90100	-7
1.90467	-9
1.90833	-12
1.91200	-13
1.91567	-7
1.91933	0
1.92300	1
1.92667	2
1.93033	5
1.93400	5
1.93767	4
1.94133	6
1.94500	8
1.94867	6
1.95233	20
1.95600	180
1.95967	1291
1.96333	7053
1.96700	29529
1.97067	96222
1.97433	246416
1.97800	504257
1.98167	848217
1.98533	1215719
1.98900	1537371
1.99267	1761988
1.99633	1861983
2.00000	1832099
2.00367	1686787
2.00733	1458494
2.01100	1189980
2.01467	922207
2.01833	684728
2.02200	491899
2.02567	345333
2.02933	239157
2.03300	164764
2.03667	113777
2.04033	79288
2.04400	56092
2.04767	40483
2.05133	29924
2.05500	22701
2.05867	17684
2.06233	14134
2.06600	11568
2.06967	9665
2.07333	8223
2.07700	7112
2.08067	6237
2.08433	5539
2.08800	4969
2.09167	4494
2.09533	4090
2.09900	3745
2.10267	3451
2.10633	3199
2.11000	2985
2.11367	2795
2.11733	2619
2.12100	2462
2.12467	2323
2.12833	2198
2.13200	2084
2.13567	1978
2.13933	1883
2.14300	1796
2.14667	1716
2.15033	1646
2.15400	1580
2.15767	1520
2.16133	1463
2.16500	1409
2.16867	1359
2.17233	1310
2.17600	1261
2.17967	1214
2.18333	1175
2.18700	1142
2.19067	1111
2.19433	1085
2.19800	1058
2.20167	1029
2.20533	999
2.20900	969
2.21267	939
2.21633	912
2.22000	888
2.22367	865
2.22733	844
2.23100	826
2.23467	812
2.23833	798
2.24200	781
2.24567	764
2.24933	748
2.25300	737
2.25667	727
2.26033	713
2.26400	701
2.26767	695
2.27133	691
2.27500	686
2.27867	680
2.28233	675
2.28600	671
2.28967	664
2.29333	651
2.29700	634
2.30067	622
2.30433	614
2.30800	606
2.31167	599
2.31533	595
2.31900	589
2.32267	576
2.32633	558
2.33000	541
2.33367	530
2.33733	525
2.34100	524
2.34467	522
2.34833	522
2.35200	521
2.35567	519
2.35933	512
2.36300	504
2.36667	500
2.37033	500
2.37400	502
2.37767	504
2.38133	501
2.38500	497
2.38867	496
2.39233	495
2.39600	495
2.39967	497
2.40333	499
2.40700	498
2.41067	493
2.41433	487
2.41800	480
2.42167	472
2.42533	465
2.42900	457
2.43267	452
2.43633	452
2.44000	453
2.44367	453
2.44733	449
2.45100	444
2.45467	440
2.45833	435
2.46200	427
2.46567	419
2.46933	412
2.47300	407
2.47667	407
2.48033	413
2.48400	419
2.48767	421
2.49133	420
2.49500	421
2.49867	423
2.50233	426
2.50600	427
2.50967	429
2.51333	428
2.51700	424
2.52067	422
2.52433	422
2.52800	419
2.53167	414
2.53533	410
2.53900	405
2.54267	402
2.54633	404
2.55000	407
2.55367	412
2.55733	419
2.56100	424
2.56467	428
2.56833	427
2.57200	420
2.57567	407
2.57933	396
2.58300	391
2.58667	392
2.59033	394
2.59400	401
2.59767	408
2.60133	419
2.60500	422
2.60867	419
2.61233	415
2.61600	411
2.61967	404
2.62333	400
2.62700	394
2.63067	386
2.63433	376
2.63800	371
2.64167	371
2.64533	377
2.64900	383
2.65267	386
2.65633	385
2.66000	381
2.66367	378
2.66733	378
2.67100	379
2.67467	382
2.67833	383
2.68200	380
2.68567	382
2.68933	384
2.69300	389
2.69667	391
2.70033	387
2.70400	382
2.70767	377
2.71133	377
2.71500	384
2.71867	394
2.72233	403
2.72600	403
2.72967	399
2.73333	398
2.73700	391
2.74067	381
2.74433	370
2.74800	363
2.75167	360
2.75533	361
2.75900	360
2.76267	360
2.76633	363
2.77000	371
2.77367	381
2.77733	389
2.78100	396
2.78467	403
2.78833	407
2.79200	411
2.79567	411
2.79933	409
2.80300	412
2.80667	417
2.81033	417
2.81400	411
2.81767	400
2.82133	391
2.82500	387
2.82867	387
2.83233	389
2.83600	393
2.83967	392
2.84333	392
2.84700	395
2.85067	400
2.85433	403
2.85800	409
2.86167	412
2.86533	413
2.86900	415
2.87267	411
2.87633	407
2.88000	403
2.88367	399
2.88733	397
2.89100	394
2.89467	390
2.89833	390
2.90200	391
2.90567	395
2.90933	405
2.91300	415
2.91667	418
2.92033	416
2.92400	411
2.92767	404
2.93133	400
2.93500	399
2.93867	398
2.94233	402
2.94600	405
2.94967	405
2.95333	407
2.95700	411
2.96067	413
2.96433	409
2.96800	402
2.97167	396
2.97533	391
2.97900	384
2.98267	379
2.98633	379
2.99000	386
2.99367	397
2.99733	406
3.00100	409
3.00467	409
3.00833	405
3.01200	400
3.01567	391
3.01933	384
3.02300	382
3.02667	384
3.03033	387
3.03400	389
3.03767	388
3.04133	388
3.04500	384
3.04867	376
3.05233	368
3.05600	370
3.05967	378
3.06333	388
3.06700	396
3.07067	403
3.07433	404
3.07800	401
3.08167	397
3.08533	392
3.08900	388
3.09267	388
3.09633	383
3.10000	377
3.10367	377
3.10733	381
3.11100	382
3.11467	379
3.11833	374
3.12200	369
3.12567	367
3.12933	366
3.13300	370
3.13667	373
3.14033	375
3.14400	380
3.14767	388
3.15133	395
3.15500	397
3.15867	395
3.16233	392
3.16600	392
3.16967	392
3.17333	389
3.17700	385
3.18067	382
3.18433	377
3.18800	370
3.19167	363
3.19533	362
3.19900	368
3.20267	374
3.20633	371
3.21000	369
3.21367	369
3.21733	367
3.22100	360
3.22467	351
3.22833	348
3.23200	346
3.23567	341
3.23933	339
3.24300	342
3.24667	347
3.25033	352
3.25400	353
3.25767	353
3.26133	356
3.26500	360
3.26867	360
3.27233	358
3.27600	353
3.27967	341
3.28333	329
3.28700	332
3.29067	338
3.29433	344
3.29800	352
3.30167	361
3.30533	369
3.30900	370
3.31267	361
3.31633	352
3.32000	347
3.32367	346
3.32733	350
3.33100	351
3.33467	349
3.33833	343
3.34200	337
3.34567	333
3.34933	332
3.35300	332
3.35667	333
3.36033	333
3.36400	343
3.36767	356
3.37133	363
3.37500	359
3.37867	349
3.38233	341
3.38600	335
3.38967	331
3.39333	324
3.39700	312
3.40067	302
3.40433	294
3.40800	291
3.41167	296
3.41533	302
3.41900	309
3.42267	319
3.42633	323
3.43000	322
3.43367	318
3.43733	317
3.44100	318
3.44467	314
3.44833	314
3.45200	315
3.45567	319
3.45933	321
3.46300	321
3.46667	324
3.47033	330
3.47400	335
3.47767	334
3.48133	329
3.48500	326
3.48867	321
3.49233	311
3.49600	298
3.49967	290
3.50333	294
3.50700	302
3.51067	305
3.51433	304
3.51800	298
3.52167	291
3.52533	289
3.52900	289
3.53267	289
3.53633	291
3.54000	295
3.54367	302
3.54733	302
3.55100	297
3.55467	293
3.55833	293
3.56200	295
3.56567	293
3.56933	286
3.57300	281
3.57667	277
3.58033	275
3.58400	277
3.58767	281
3.59133	284
3.59500	288
3.59867	291
3.60233	295
3.60600	299
3.60967	300
3.61333	296
3.61700	291
3.62067	283
3.62433	281
3.62800	284
3.63167	284
3.63533	286
3.63900	288
3.64267	286
3.64633	285
3.65000	283
3.65367	282
3.65733	282
3.66100	277
3.66467	269
3.66833	261
3.67200	257
3.67567	259
3.67933	260
3.68300	258
3.68667	257
3.69033	262
3.69400	273
3.69767	281
3.70133	285
3.70500	285
3.70867	277
3.71233	267
3.71600	258
3.71967	252
3.72333	252
3.72700	254
3.73067	257
3.73433	260
3.73800	263
3.74167	268
3.74533	270
3.74900	263
3.75267	253
3.75633	245
3.76000	244
3.76367	245
3.76733	245
3.77100	244
3.77467	241
3.77833	241
3.78200	244
3.78567	247
3.78933	248
3.79300	246
3.79667	246
3.80033	250
3.80400	253
3.80767	256
3.81133	260
3.81500	264
3.81867	265
3.82233	265
3.82600	271
3.82967	279
3.83333	282
3.83700	277
3.84067	267
3.84433	252
3.84800	235
3.85167	222
3.85533	214
3.85900	211
3.86267	214
3.86633	219
3.87000	225
3.87367	227
3.87733	233
3.88100	244
3.88467	253
3.88833	259
3.89200	259
3.89567	251
3.89933	243
3.90300	239
3.90667	240
3.91033	242
3.91400	242
3.91767	243
3.92133	237
3.92500	227
3.92867	221
3.93233	223
3.93600	226
3.93967	227
3.94333	226
3.94700	224
3.95067	221
3.95433	219
3.95800	223
3.96167	226
3.96533	226
3.96900	228
3.97267	235
3.97633	239
3.98000	235
3.98367	225
3.98733	219
3.99100	215
3.99467	215
3.99833	218

[Chromatogram (Ch2)]
Interval(msec)	220
# of Points	1091
Start Time(min)	0.002
End Time(min)	3.998
R.Time (min)	Intensity
0.00167	0
0.00533	0
0.00900	0
0.01267	-0
0.01633	-0
0.02000	-0
0.02367	-1
0.02733	-1
0.03100	-1
0.03467	-1
0.03833	-1
0.04200	-1
0.04567	-1
0.04933	-1
0.05300	-1
0.05667	-1
0.06033	-1
0.06400	-1
0.06767	-1
0.07133	-1
0.07500	-1
0.07867	-1
0.08233	-1
0.08600	-0
0.08967	-0
0.09333	-0
0.09700	0
0.10067	0
0.10433	0
0.10800	0
0.11167	0
0.11533	0
0.11900	0
0.12267	1
0.12633	1
0.13000	1
0.13367	2
0.13733	2
0.14100	2
0.14467	3
0.14833	3
0.15200	3
0.15567	2
0.15933	2
0.16300	2
0.16667	2
0.17033	2
0.17400	2
0.17767	3
0.18133	3
0.18500	2
0.18867	2
0.19233	1
0.19600	1
0.19967	1
0.20333	0
0.20700	-0
0.21067	-1
0.21433	-1
0.21800	-2
0.22167	-2
0.22533	-2
0.22900	-1
0.23267	-1
0.23633	-1
0.24000	-1
0.24367	-1
0.24733	-1
0.25100	-1
0.25467	-1
0.25833	-1
0.26200	-1
0.26567	-1
0.26933	-1
0.27300	-1
0.27667	-1
0.28033	-1
0.28400	-1
0.28767	-1
0.29133	-1
0.29500	-1
0.29867	-1
0.30233	-1
0.30600	-2
0.30967	-2
0.31333	-2
0.31700	-3
0.32067	-3
0.32433	-3
0.32800	-3
0.33167	-3
0.33533	-3
0.33900	-3
0.34267	-3
0.34633	-3
0.35000	-3
0.35367	-3
0.35733	-2
0.36100	-2
0.36467	-2
0.36833	-1
0.37200	-1
0.37567	-1
0.37933	-1
0.38300	-1
0.38667	-0
0.39033	0
0.39400	0
0.39767	1
0.40133	1
0.40500	2
0.40867	2
0.41233	2
0.41600	2
0.41967	1
0.42333	1
0.42700	0
0.43067	-0
0.43433	-1
0.43800	-1
0.44167	-1
0.44533	-2
0.44900	-2
0.45267	-2
0.45633	-2
0.46000	-3
0.46367	-3
0.46733	-3
0.47100	-3
0.47467	-3
0.47833	-2
0.48200	-2
0.48567	-2
0.48933	-2
0.49300	-2
0.49667	-2
0.50033	-2
0.50400	-2
0.50767	-2
0.51133	-2
0.51500	-2
0.51867	-2
0.52233	-2
0.52600	-2
0.52967	-2
0.53333	-1
0.53700	-1
0.54067	-1
0.54433	-1
0.54800	-1
0.55167	-0
0.55533	-0
0.55900	-0
0.56267	-0
0.56633	0
0.57000	0
0.57367	0
0.57733	0
0.58100	0
0.58467	0
0.58833	0
0.59200	0
0.59567	0
0.59933	0
0.60300	0
0.60667	0
0.61033	0
0.61400	1
0.61767	1
0.62133	1
0.62500	1
0.62867	1
0.63233	1
0.63600	0
0.63967	0
0.64333	-0
0.64700	-1
0.65067	-1
0.65433	-1
0.65800	-1
0.66167	-1
0.66533	-1
0.66900	-1
0.67267	-1
0.67633	-1
0.68000	-1
0.68367	-0
0.68733	-0
0.69100	-0
0.69467	-0
0.69833	-0
0.70200	-1
0.70567	-1
0.70933	-1
0.71300	-2
0.71667	-2
0.72033	-2
0.72400	-2
0.72767	-2
0.73133	-2
0.73500	-3
0.73867	-3
0.74233	-3
0.74600	-2
0.74967	-2
0.75333	-2
0.75700	-1
0.76067	-1
0.76433	-1
0.76800	-0
0.77167	0
0.77533	1
0.77900	1
0.78267	1
0.78633	2
0.79000	2
0.79367	2
0.79733	3
0.80100	3
0.80467	3
0.80833	3
0.81200	3
0.81567	2
0.81933	2
0.82300	1
0.82667	0
0.83033	-0
0.83400	-1
0.83767	-2
0.84133	-3
0.84500	-3
0.84867	-3
0.85233	-4
0.85600	-4
0.85967	-4
0.86333	-5
0.86700	-4
0.87067	-4
0.87433	-4
0.87800	-4
0.88167	-4
0.88533	-3
0.88900	-3
0.89267	-3
0.89633	-3
0.90000	-3
0.90367	-3
0.90733	-3
0.91100	-2
0.91467	-2
0.91833	-2
0.92200	-2
0.92567	-2
0.92933	-1
0.93300	-1
0.93667	-1
0.94033	-1
0.94400	-1
0.94767	-1
0.95133	-1
0.95500	-1
0.95867	-1
0.96233	-1
0.96600	-1
0.96967	-1
0.97333	-1
0.97700	-1
0.98067	-1
0.98433	-1
0.98800	-0
0.99167	-0
0.99533	-0
0.99900	-1
1.00267	-1
1.00633	-1
1.01000	-1
1.01367	-2
1.01733	-2
1.02100	-2
1.02467	-2
1.02833	-3
1.03200	-2
1.03567	-2
1.03933	-2
1.04300	-2
1.04667	-1
1.05033	-1
1.05400	-1
1.05767	-1
1.06133	-1
1.06500	-1
1.06867	-1
1.07233	-1
1.07600	-1
1.07967	-1
1.08333	-1
1.08700	-1
1.09067	-1
1.09433	-1
1.09800	-0
1.10167	0
1.10533	1
1.10900	1
1.11267	2
1.11633	2
1.12000	2
1.12367	1
1.12733	1
1.13100	1
1.13467	0
1.13833	0
1.14200	-0
1.14567	-0
1.14933	-1
1.15300	-1
1.15667	-2
1.16033	-2
1.16400	-3
1.16767	-3
1.17133	-3
1.17500	-3
1.17867	-4
1.18233	-4
1.18600	-4
1.18967	-4
1.19333	-4
1.19700	-4
1.20067	-4
1.20433	-4
1.20800	-4
1.21167	-4
1.21533	-4
1.21900	-4
1.22267	-4
1.22633	-3
1.23000	-3
1.23367	-3
1.23733	-3
1.24100	-2
1.24467	-2
1.24833	-2
1.25200	-1
1.25567	-1
1.25933	-1
1.26300	-1
1.26667	-1
1.27033	-1
1.27400	-0
1.27767	-0
1.28133	-1
1.28500	-1
1.28867	-1
1.29233	-1
1.29600	-2
1.29967	-2
1.30333	-1
1.30700	-1
1.31067	-1
1.31433	-1
1.31800	-1
1.32167	-1
1.32533	-1
1.32900	-1
1.33267	-1
1.33633	-2
1.34000	-2
1.34367	-2
1.34733	-3
1.35100	-3
1.35467	-3
1.35833	-3
1.36200	-3
1.36567	-3
1.36933	-2
1.37300	-2
1.37667	-2
1.38033	-2
1.38400	-2
1.38767	-2
1.39133	-2
1.39500	-2
1.39867	-2
1.40233	-1
1.40600	-1
1.40967	-1
1.41333	-1
1.41700	-1
1.42067	-2
1.42433	-2
1.42800	-2
1.43167	-2
1.43533	-2
1.43900	-2
1.44267	-2
1.44633	-2
1.45000	-2
1.45367	-2
1.45733	-2
1.46100	-2
1.46467	-3
1.46833	-2
1.47200	-2
1.47567	-2
1.47933	-2
1.48300	-2
1.48667	-2
1.49033	-2
1.49400	-2
1.49767	-1
1.50133	-1
1.50500	-1
1.50867	-1
1.51233	-0
1.51600	-0
1.51967	0
1.52333	0
1.52700	0
1.53067	0
1.53433	0
1.53800	0
1.54167	0
1.54533	0
1.54900	0
1.55267	0
1.55633	-0
1.56000	-0
1.56367	-0
1.56733	-1
1.57100	-1
1.57467	-1
1.57833	-2
1.58200	-2
1.58567	-2
1.58933	-3
1.59300	-3
1.59667	-4
1.60033	-5
1.60400	-7
1.60767	-8
1.61133	-10
1.61500	-12
1.61867	-14
1.62233	-16
1.62600	-19
1.62967	-22
1.63333	-25
1.63700	-28
1.64067	-32
1.64433	-36
1.64800	-40
1.65167	-43
1.65533	-47
1.65900	-50
1.66267	-54
1.66633	-58
1.67000	-62
1.67367	-66
1.67733	-70
1.68100	-74
1.68467	-79
1.68833	-83
1.69200	-87
1.69567	-91
1.69933	-94
1.70300	-97
1.70667	-99
1.71033	-101
1.71400	-103
1.71767	-105
1.72133	-106
1.72500	-107
1.72867	-108
1.73233	-108
1.73600	-108
1.73967	-108
1.74333	-108
1.74700	-109
1.75067	-109
1.75433	-110
1.75800	-110
1.76167	-111
1.76533	-111
1.76900	-111
1.77267	-111
1.77633	-111
1.78000	-111
1.78367	-110
1.78733	-110
1.79100	-109
1.79467	-109
1.79833	-110
1.80200	-111
1.80567	-112
1.80933	-112
1.81300	-113
1.81667	-113
1.82033	-113
1.82400	-113
1.82767	-113
1.83133	-113
1.83500	-113
1.83867	-113
1.84233	-113
1.84600	-112
1.84967	-112
1.85333	-113
1.85700	-113
1.86067	-113
1.86433	-114
1.86800	-114
1.87167	-114
1.87533	-114
1.87900	-113
1.88267	-113
1.88633	-114
1.89000	-114
1.89367	-114
1.89733	-115
1.90100	-115
1.90467	-115
1.90833	-115
1.91200	-115
1.91567	-114
1.91933	-114
1.92300	-113
1.92667	-113
1.93033	-112
1.93400	-112
1.93767	-111
1.94133	-111
1.94500	-110
1.94867	-110
1.95233	-109
1.95600	-109
1.95967	-109
1.96333	-109
1.96700	-109
1.97067	-109
1.97433	-109
1.97800	-109
1.98167	-108
1.98533	-108
1.98900	-108
1.99267	-107
1.99633	-106
2.00000	-106
2.00367	-105
2.00733	-105
2.01100	-105
2.01467	-105
2.01833	-105
2.02200	-106
2.02567	-106
2.02933	-106
2.03300	-105
2.03667	-105
2.04033	-105
2.04400	-104
2.04767	-103
2.05133	-103
2.05500	-102
2.05867	-102
2.06233	-101
2.06600	-100
2.06967	-100
2.07333	-99
2.07700	-99
2.08067	-99
2.08433	-99
2.08800	-99
2.09167	-100
2.09533	-100
2.09900	-100
2.10267	-100
2.10633	-99
2.11000	-99
2.11367	-98
2.11733	-98
2.12100	-97
2.12467	-97
2.12833	-97
2.13200	-96
2.13567	-96
2.13933	-95
2.14300	-95
2.14667	-95
2.15033	-95
2.15400	-95
2.15767	-95
2.16133	-94
2.16500	-93
2.16867	-92
2.17233	-91
2.17600	-90
2.17967	-90
2.18333	-89
2.18700	-89
2.19067	-89
2.19433	-88
2.19800	-88
2.20167	-88
2.20533	-88
2.20900	-88
2.21267	-88
2.21633	-88
2.22000	-88
2.22367	-88
2.22733	-89
2.23100	-88
2.23467	-88
2.23833	-88
2.24200	-87
2.24567	-87
2.24933	-87
2.25300	-86
2.25667	-86
2.26033	-86
2.26400	-85
2.26767	-85
2.27133	-85
2.27500	-84
2.27867	-84
2.28233	-83
2.28600	-82
2.28967	-81
2.29333	-80
2.29700	-80
2.30067	-79
2.30433	-79
2.30800	-80
2.31167	-80
2.31533	-80
2.31900	-80
2.32267	-79
2.32633	-78
2.33000	-78
2.33367	-77
2.33733	-77
2.34100	-76
2.34467	-76
2.34833	-75
2.35200	-76
2.35567	-76
2.35933	-75
2.36300	-74
2.36667	-73
2.37033	-71
2.37400	-68
2.37767	-66
2.38133	-62
2.38500	-59
2.38867	-55
2.39233	-50
2.39600	-45
2.39967	-40
2.40333	-36
2.40700	-31
2.41067	-26
2.41433	-22
2.41800	-19
2.42167	-16
2.42533	-13
2.42900	-12
2.43267	-10
2.43633	-8
2.44000	-7
2.44367	-6
2.44733	-6
2.45100	-5
2.45467	-5
2.45833	-5
2.46200	-4
2.46567	-4
2.46933	-3
2.47300	-3
2.47667	-2
2.48033	-1
2.48400	1
2.48767	2
2.49133	4
2.49500	5
2.49867	6
2.50233	7
2.50600	8
2.50967	8
2.51333	9
2.51700	9
2.52067	10
2.52433	10
2.52800	11
2.53167	12
2.53533	12
2.53900	14
2.54267	15
2.54633	16
2.55000	16
2.55367	17
2.55733	17
2.56100	17
2.56467	17
2.56833	17
2.57200	17
2.57567	16
2.57933	16
2.58300	16
2.58667	15
2.59033	15
2.59400	15
2.59767	16
2.60133	16
2.60500	16
2.60867	17
2.61233	17
2.61600	17
2.61967	18
2.62333	18
2.62700	18
2.63067	18
2.63433	19
2.63800	19
2.64167	19
2.64533	19
2.64900	19
2.65267	19
2.65633	19
2.66000	19
2.66367	20
2.66733	20
2.67100	20
2.67467	21
2.67833	21
2.68200	21
2.68567	22
2.68933	22
2.69300	23
2.69667	23
2.70033	24
2.70400	25
2.70767	25
2.71133	26
2.71500	26
2.71867	26
2.72233	26
2.72600	26
2.72967	26
2.73333	26
2.73700	26
2.74067	26
2.74433	26
2.74800	26
2.75167	26
2.75533	26
2.75900	26
2.76267	27
2.76633	27
2.77000	28
2.77367	28
2.77733	29
2.78100	29
2.78467	29
2.78833	29
2.79200	29
2.79567	29
2.79933	29
2.80300	28
2.80667	28
2.81033	28
2.81400	28
2.81767	28
2.82133	28
2.82500	28
2.82867	28
2.83233	28
2.83600	28
2.83967	27
2.84333	26
2.84700	24
2.85067	20
2.85433	14
2.85800	5
2.86167	-7
2.86533	-23
2.86900	-43
2.87267	-68
2.87633	-97
2.88000	-131
2.88367	-168
2.88733	-210
2.89100	-255
2.89467	-303
2.89833	-354
2.90200	-407
2.90567	-461
2.90933	-516
2.91300	-571
2.91667	-627
2.92033	-682
2.92400	-736
2.92767	-788
2.93133	-839
2.93500	-892
2.93867	-949
2.94233	-1007
2.94600	-1057
2.94967	-1089
2.95333	-1097
2.95700	-1078
2.96067	-1036
2.96433	-977
2.96800	-905
2.97167	-827
2.97533	-746
2.97900	-667
2.98267	-591
2.98633	-519
2.99000	-454
2.99367	-394
2.99733	-340
3.00100	-293
3.00467	-251
3.00833	-214
3.01200	-182
3.01567	-154
3.01933	-130
3.02300	-109
3.02667	-91
3.03033	-75
3.03400	-62
3.03767	-51
3.04133	-41
3.04500	-33
3.04867	-27
3.05233	-21
3.05600	-15
3.05967	-11
3.06333	-7
3.06700	-4
3.07067	-1
3.07433	2
3.07800	4
3.08167	6
3.08533	7
3.08900	9
3.09267	10
3.09633	11
3.10000	12
3.10367	14
3.10733	14
3.11100	15
3.11467	16
3.11833	16
3.12200	16
3.12567	16
3.12933	16
3.13300	16
3.13667	16
3.14033	17
3.14400	17
3.14767	18
3.15133	18
3.15500	18
3.15867	18
3.16233	19
3.16600	19
3.16967	19
3.17333	19
3.17700	20
3.18067	20
3.18433	21
3.18800	21
3.19167	21
3.19533	21
3.19900	21
3.20267	21
3.20633	21
3.21000	21
3.21367	21
3.21733	21
3.22100	21
3.22467	21
3.22833	22
3.23200	22
3.23567	22
3.23933	23
3.24300	23
3.24667	23
3.25033	23
3.25400	24
3.25767	24
3.26133	24
3.26500	24
3.26867	24
3.27233	24
3.27600	24
3.27967	24
3.28333	24
3.28700	24
3.29067	24
3.29433	24
3.29800	25
3.30167	25
3.30533	26
3.30900	26
3.31267	26
3.31633	26
3.32000	26
3.32367	26
3.32733	26
3.33100	26
3.33467	26
3.33833	26
3.34200	26
3.34567	25
3.34933	25
3.35300	25
3.35667	25
3.36033	25
3.36400	25
3.36767	25
3.37133	26
3.37500	26
3.37867	26
3.38233	26
3.38600	26
3.38967	26
3.39333	26
3.39700	26
3.40067	26
3.40433	26
3.40800	26
3.41167	26
3.41533	27
3.41900	27
3.42267	27
3.42633	27
3.43000	27
3.43367	27
3.43733	27
3.44100	27
3.44467	27
3.44833	27
3.45200	27
3.45567	27
3.45933	27
3.46300	27
3.46667	27
3.47033	27
3.47400	27
3.47767	27
3.48133	27
3.48500	27
3.48867	27
3.49233	27
3.49600	27
3.49967	27
3.50333	27
3.50700	27
3.51067	27
3.51433	27
3.51800	27
3.52167	27
3.52533	27
3.52900	27
3.53267	27
3.53633	27
3.54000	27
3.54367	26
3.54733	26
3.55100	26
3.55467	26
3.55833	26
3.56200	26
3.56567	26
3.56933	26
3.57300	27
3.57667	27
3.58033	27
3.58400	27
3.58767	27
3.59133	27
3.59500	27
3.59867	27
3.60233	28
3.60600	28
3.60967	28
3.61333	28
3.61700	29
3.62067	29
3.62433	29
3.62800	29
3.63167	29
3.63533	30
3.63900	30
3.64267	30
3.64633	30
3.65000	30
3.65367	31
3.65733	31
3.66100	31
3.66467	31
3.66833	31
3.67200	31
3.67567	30
3.67933	30
3.68300	30
3.68667	30
3.69033	30
3.69400	30
3.69767	30
3.70133	30
3.70500	30
3.70867	30
3.71233	30
3.71600	29
3.71967	29
3.72333	29
3.72700	29
3.73067	28
3.73433	28
3.73800	28
3.74167	28
3.74533	28
3.74900	28
3.75267	28
3.75633	27
3.76000	27
3.76367	27
3.76733	27
3.77100	27
3.77467	26
3.77833	26
3.78200	26
3.78567	26
3.78933	27
3.79300	27
3.79667	27
3.80033	27
3.80400	27
3.80767	28
3.81133	28
3.81500	28
3.81867	28
3.82233	28
3.82600	28
3.82967	28
3.83333	28
3.83700	28
3.84067	28
3.84433	28
3.84800	28
3.85167	28
3.85533	27
3.85900	27
3.86267	27
3.86633	27
3.87000	27
3.87367	27
3.87733	26
3.88100	26
3.88467	26
3.88833	26
3.89200	26
3.89567	25
3.89933	25
3.90300	25
3.90667	25
3.91033	25
3.91400	25
3.91767	25
3.92133	25
3.92500	25
3.92867	25
3.93233	25
3.93600	25
3.93967	25
3.94333	25
3.94700	25
3.95067	25
3.95433	24
3.95800	24
3.96167	24
3.96533	24
3.96900	24
3.97267	24
3.97633	25
3.98000	25
3.98367	25
3.98733	25
3.99100	25
3.99467	26
3.99833	26

[Chromatogram (Ch3)]
Interval(msec)	220
# of Points	1091
Start Time(min)	0.002
End Time(min)	3.998
R.Time (min)	Intensity
0.00167	-0
0.00533	0
0.00900	-1
0.01267	-1
0.01633	-2
0.02000	-2
0.02367	-2
0.02733	-2
0.03100	-2
0.03467	-3
0.03833	-3
0.04200	-0
0.04567	2
0.04933	4
0.05300	3
0.05667	2
0.06033	2
0.06400	1
0.06767	0
0.07133	0
0.07500	0
0.07867	0
0.08233	-0
0.08600	-1
0.08967	-2
0.09333	-4
0.09700	-5
0.10067	-4
0.10433	-5
0.10800	-5
0.11167	-4
0.11533	-3
0.11900	-0
0.12267	1
0.12633	1
0.13000	-0
0.13367	-1
0.13733	-1
0.14100	-0
0.14467	2
0.14833	5
0.15200	6
0.15567	7
0.15933	6
0.16300	5
0.16667	4
0.17033	2
0.17400	1
0.17767	1
0.18133	3
0.18500	5
0.18867	6
0.19233	4
0.19600	3
0.19967	-0
0.20333	-0
0.20700	2
0.21067	3
0.21433	4
0.21800	4
0.22167	3
0.22533	3
0.22900	3
0.23267	2
0.23633	2
0.24000	2
0.24367	1
0.24733	0
0.25100	-0
0.25467	-0
0.25833	-0
0.26200	2
0.26567	4
0.26933	6
0.27300	7
0.27667	8
0.28033	7
0.28400	7
0.28767	5
0.29133	3
0.29500	3
0.29867	2
0.30233	1
0.30600	-0
0.30967	-1
0.31333	1
0.31700	2
0.32067	0
0.32433	-0
0.32800	1
0.33167	4
0.33533	3
0.33900	2
0.34267	2
0.34633	1
0.35000	-0
0.35367	1
0.35733	0
0.36100	0
0.36467	2
0.36833	2
0.37200	2
0.37567	4
0.37933	6
0.38300	6
0.38667	6
0.39033	4
0.39400	3
0.39767	2
0.40133	3
0.40500	5
0.40867	6
0.41233	6
0.41600	6
0.41967	6
0.42333	6
0.42700	5
0.43067	4
0.43433	5
0.43800	6
0.44167	8
0.44533	9
0.44900	8
0.45267	7
0.45633	6
0.46000	3
0.46367	4
0.46733	5
0.47100	5
0.47467	4
0.47833	4
0.48200	3
0.48567	2
0.48933	1
0.49300	1
0.49667	0
0.50033	0
0.50400	-0
0.50767	1
0.51133	3
0.51500	4
0.51867	3
0.52233	2
0.52600	1
0.52967	3
0.53333	4
0.53700	4
0.54067	2
0.54433	2
0.54800	2
0.55167	5
0.55533	8
0.55900	7
0.56267	6
0.56633	4
0.57000	3
0.57367	4
0.57733	4
0.58100	2
0.58467	1
0.58833	0
0.59200	1
0.59567	3
0.59933	3
0.60300	4
0.60667	3
0.61033	3
0.61400	1
0.61767	-0
0.62133	0
0.62500	2
0.62867	2
0.63233	2
0.63600	5
0.63967	6
0.64333	7
0.64700	3
0.65067	2
0.65433	2
0.65800	4
0.66167	2
0.66533	0
0.66900	-1
0.67267	-0
0.67633	2
0.68000	4
0.68367	5
0.68733	6
0.69100	6
0.69467	5
0.69833	6
0.70200	6
0.70567	6
0.70933	5
0.71300	4
0.71667	3
0.72033	3
0.72400	4
0.72767	5
0.73133	5
0.73500	5
0.73867	4
0.74233	4
0.74600	4
0.74967	3
0.75333	2
0.75700	4
0.76067	6
0.76433	6
0.76800	4
0.77167	4
0.77533	5
0.77900	6
0.78267	7
0.78633	7
0.79000	7
0.79367	8
0.79733	7
0.80100	7
0.80467	7
0.80833	6
0.81200	3
0.81567	1
0.81933	2
0.82300	3
0.82667	3
0.83033	5
0.83400	6
0.83767	7
0.84133	6
0.84500	7
0.84867	7
0.85233	8
0.85600	7
0.85967	7
0.86333	7
0.86700	7
0.87067	6
0.87433	6
0.87800	7
0.88167	7
0.88533	6
0.88900	6
0.89267	7
0.89633	8
0.90000	8
0.90367	7
0.90733	7
0.91100	6
0.91467	6
0.91833	7
0.92200	7
0.92567	6
0.92933	5
0.93300	6
0.93667	8
0.94033	9
0.94400	9
0.94767	9
0.95133	10
0.95500	12
0.95867	12
0.96233	10
0.96600	8
0.96967	7
0.97333	7
0.97700	7
0.98067	7
0.98433	8
0.98800	10
0.99167	11
0.99533	12
0.99900	13
1.00267	11
1.00633	9
1.01000	10
1.01367	10
1.01733	9
1.02100	10
1.02467	10
1.02833	11
1.03200	12
1.03567	12
1.03933	12
1.04300	12
1.04667	12
1.05033	13
1.05400	14
1.05767	15
1.06133	14
1.06500	14
1.06867	12
1.07233	11
1.07600	10
1.07967	9
1.08333	10
1.08700	12
1.09067	15
1.09433	15
1.09800	12
1.10167	9
1.10533	7
1.10900	8
1.11267	10
1.11633	11
1.12000	13
1.12367	14
1.12733	13
1.13100	12
1.13467	12
1.13833	13
1.14200	14
1.14567	14
1.14933	12
1.15300	10
1.15667	9
1.16033	11
1.16400	12
1.16767	12
1.17133	13
1.17500	14
1.17867	14
1.18233	14
1.18600	15
1.18967	14
1.19333	14
1.19700	14
1.20067	14
1.20433	15
1.20800	13
1.21167	12
1.21533	12
1.21900	12
1.22267	13
1.22633	13
1.23000	15
1.23367	15
1.23733	16
1.24100	15
1.24467	12
1.24833	11
1.25200	10
1.25567	11
1.25933	12
1.26300	12
1.26667	14
1.27033	16
1.27400	17
1.27767	16
1.28133	16
1.28500	17
1.28867	16
1.29233	16
1.29600	17
1.29967	17
1.30333	16
1.30700	16
1.31067	17
1.31433	19
1.31800	18
1.32167	19
1.32533	20
1.32900	20
1.33267	20
1.33633	19
1.34000	19
1.34367	18
1.34733	17
1.35100	17
1.35467	19
1.35833	21
1.36200	23
1.36567	24
1.36933	22
1.37300	20
1.37667	20
1.38033	22
1.38400	23
1.38767	23
1.39133	23
1.39500	25
1.39867	23
1.40233	22
1.40600	23
1.40967	24
1.41333	22
1.41700	22
1.42067	20
1.42433	19
1.42800	18
1.43167	18
1.43533	18
1.43900	16
1.44267	17
1.44633	18
1.45000	19
1.45367	20
1.45733	22
1.46100	21
1.46467	23
1.46833	24
1.47200	25
1.47567	26
1.47933	26
1.48300	27
1.48667	26
1.49033	25
1.49400	25
1.49767	25
1.50133	24
1.50500	19
1.50867	17
1.51233	18
1.51600	18
1.51967	17
1.52333	16
1.52700	16
1.53067	16
1.53433	18
1.53800	17
1.54167	17
1.54533	16
1.54900	17
1.55267	18
1.55633	20
1.56000	22
1.56367	22
1.56733	23
1.57100	23
1.57467	24
1.57833	24
1.58200	23
1.58567	21
1.58933	21
1.59300	22
1.59667	22
1.60033	22
1.60400	23
1.60767	24
1.61133	24
1.61500	24
1.61867	23
1.62233	23
1.62600	22
1.62967	22
1.63333	22
1.63700	20
1.64067	18
1.64433	19
1.64800	23
1.65167	25
1.65533	27
1.65900	28
1.66267	28
1.66633	28
1.67000	29
1.67367	28
1.67733	30
1.68100	33
1.68467	32
1.68833	32
1.69200	32
1.69567	34
1.69933	35
1.70300	36
1.70667	37
1.71033	38
1.71400	39
1.71767	38
1.72133	35
1.72500	37
1.72867	41
1.73233	43
1.73600	42
1.73967	42
1.74333	42
1.74700	42
1.75067	41
1.75433	42
1.75800	41
1.76167	40
1.76533	40
1.76900	43
1.77267	46
1.77633	46
1.78000	44
1.78367	41
1.78733	40
1.79100	40
1.79467	40
1.79833	44
1.80200	48
1.80567	51
1.80933	51
1.81300	51
1.81667	51
1.82033	52
1.82400	54
1.82767	54
1.83133	55
1.83500	56
1.83867	55
1.84233	55
1.84600	56
1.84967	53
1.85333	52
1.85700	53
1.86067	55
1.86433	56
1.86800	56
1.87167	57
1.87533	57
1.87900	58
1.88267	62
1.88633	64
1.89000	64
1.89367	66
1.89733	67
1.90100	68
1.90467	70
1.90833	70
1.91200	71
1.91567	74
1.91933	75
1.92300	74
1.92667	73
1.93033	75
1.93400	74
1.93767	74
1.94133	76
1.94500	80
1.94867	82
1.95233	83
1.95600	82
1.95967	82
1.96333	82
1.96700	83
1.97067	85
1.97433	88
1.97800	89
1.98167	91
1.98533	92
1.98900	94
1.99267	97
1.99633	99
2.00000	99
2.00367	99
2.00733	98
2.01100	100
2.01467	103
2.01833	105
2.02200	106
2.02567	106
2.02933	107
2.03300	111
2.03667	114
2.04033	116
2.04400	118
2.04767	119
2.05133	118
2.05500	117
2.05867	117
2.06233	117
2.06600	119
2.06967	121
2.07333	124
2.07700	126
2.08067	125
2.08433	124
2.08800	126
2.09167	128
2.09533	129
2.09900	131
2.10267	134
2.10633	136
2.11000	136
2.11367	135
2.11733	136
2.12100	138
2.12467	140
2.12833	141
2.13200	143
2.13567	143
2.13933	143
2.14300	145
2.14667	147
2.15033	147
2.15400	149
2.15767	153
2.16133	155
2.16500	156
2.16867	156
2.17233	156
2.17600	157
2.17967	159
2.18333	161
2.18700	163
2.19067	167
2.19433	168
2.19800	169
2.20167	169
2.20533	169
2.20900	169
2.21267	171
2.21633	172
2.22000	174
2.22367	177
2.22733	180
2.23100	185
2.23467	187
2.23833	187
2.24200	186
2.24567	186
2.24933	187
2.25300	186
2.25667	185
2.26033	186
2.26400	188
2.26767	192
2.27133	195
2.27500	197
2.27867	199
2.28233	202
2.28600	203
2.28967	205
2.29333	207
2.29700	209
2.30067	212
2.30433	212
2.30800	211
2.31167	210
2.31533	213
2.31900	216
2.32267	219
2.32633	221
2.33000	222
2.33367	223
2.33733	225
2.34100	226
2.34467	229
2.34833	232
2.35200	232
2.35567	233
2.35933	234
2.36300	236
2.36667	239
2.37033	241
2.37400	243
2.37767	244
2.38133	245
2.38500	244
2.38867	242
2.39233	242
2.39600	246
2.39967	252
2.40333	255
2.40700	258
2.41067	259
2.41433	260
2.41800	261
2.42167	263
2.42533	263
2.42900	262
2.43267	262
2.43633	264
2.44000	267
2.44367	325
2.44733	474
2.45100	635
2.45467	769
2.45833	843
2.46200	846
2.46567	806
2.46933	756
2.47300	716
2.47667	694
2.48033	673
2.48400	641
2.48767	594
2.49133	542
2.49500	494
2.49867	458
2.50233	431
2.50600	416
2.50967	413
2.51333	421
2.51700	440
2.52067	463
2.52433	483
2.52800	491
2.53167	484
2.53533	467
2.53900	442
2.54267	409
2.54633	375
2.55000	345
2.55367	318
2.55733	297
2.56100	279
2.56467	266
2.56833	258
2.57200	251
2.57567	247
2.57933	246
2.58300	244
2.58667	245
2.59033	249
2.59400	254
2.59767	256
2.60133	255
2.60500	250
2.60867	244
2.61233	235
2.61600	222
2.61967	208
2.62333	196
2.62700	183
2.63067	171
2.63433	159
2.63800	147
2.64167	136
2.64533	125
2.64900	113
2.65267	101
2.65633	92
2.66000	83
2.66367	74
2.66733	64
2.67100	57
2.67467	50
2.67833	43
2.68200	39
2.68567	39
2.68933	39
2.69300	40
2.69667	41
2.70033	43
2.70400	47
2.70767	51
2.71133	54
2.71500	60
2.71867	67
2.72233	73
2.72600	78
2.72967	82
2.73333	87
2.73700	93
2.74067	98
2.74433	103
2.74800	106
2.75167	108
2.75533	111
2.75900	116
2.76267	121
2.76633	126
2.77000	129
2.77367	132
2.77733	135
2.78100	138
2.78467	141
2.78833	146
2.79200	151
2.79567	157
2.79933	162
2.80300	167
2.80667	171
2.81033	175
2.81400	181
2.81767	191
2.82133	203
2.82500	221
2.82867	256
2.83233	322
2.83600	436
2.83967	620
2.84333	894
2.84700	1270
2.85067	1740
2.85433	2287
2.85800	2871
2.86167	3451
2.86533	3979
2.86900	4412
2.87267	4721
2.87633	4890
2.88000	4914
2.88367	4811
2.88733	4609
2.89100	4337
2.89467	4018
2.89833	3678
2.90200	3333
2.90567	2995
2.90933	2676
2.91300	2382
2.91667	2117
2.92033	1878
2.92400	1664
2.92767	1473
2.93133	1302
2.93500	1153
2.93867	1020
2.94233	903
2.94600	802
2.94967	716
2.95333	642
2.95700	578
2.96067	520
2.96433	471
2.96800	429
2.97167	393
2.97533	361
2.97900	332
2.98267	305
2.98633	283
2.99000	263
2.99367	244
2.99733	230
3.00100	219
3.00467	209
3.00833	199
3.01200	191
3.01567	183
3.01933	179
3.02300	177
3.02667	175
3.03033	169
3.03400	163
3.03767	158
3.04133	158
3.04500	156
3.04867	153
3.05233	150
3.05600	146
3.05967	145
3.06333	144
3.06700	144
3.07067	144
3.07433	143
3.07800	142
3.08167	142
3.08533	142
3.08900	142
3.09267	141
3.09633	140
3.10000	139
3.10367	139
3.10733	138
3.11100	137
3.11467	133
3.11833	112
3.12200	75
3.12567	47
3.12933	44
3.13300	60
3.13667	95
3.14033	142
3.14400	197
3.14767	255
3.15133	313
3.15500	369
3.15867	421
3.16233	469
3.16600	511
3.16967	548
3.17333	580
3.17700	610
3.18067	635
3.18433	656
3.18800	674
3.19167	691
3.19533	706
3.19900	719
3.20267	730
3.20633	739
3.21000	747
3.21367	752
3.21733	759
3.22100	764
3.22467	771
3.22833	777
3.23200	782
3.23567	787
3.23933	794
3.24300	802
3.24667	809
3.25033	815
3.25400	820
3.25767	825
3.26133	831
3.26500	835
3.26867	839
3.27233	845
3.27600	851
3.27967	857
3.28333	862
3.28700	866
3.29067	870
3.29433	875
3.29800	881
3.30167	886
3.30533	891
3.30900	894
3.31267	899
3.31633	902
3.32000	905
3.32367	908
3.32733	910
3.33100	911
3.33467	913
3.33833	913
3.34200	914
3.34567	916
3.34933	917
3.35300	919
3.35667	921
3.36033	922
3.36400	922
3.36767	921
3.37133	919
3.37500	917
3.37867	917
3.38233	915
3.38600	911
3.38967	906
3.39333	903
3.39700	902
3.40067	900
3.40433	899
3.40800	898
3.41167	896
3.41533	896
3.41900	895
3.42267	892
3.42633	889
3.43000	885
3.43367	882
3.43733	877
3.44100	872
3.44467	869
3.44833	865
3.45200	863
3.45567	859
3.45933	856
3.46300	854
3.46667	851
3.47033	849
3.47400	847
3.47767	845
3.48133	842
3.48500	840
3.48867	835
3.49233	830
3.49600	828
3.49967	827
3.50333	824
3.50700	824
3.51067	825
3.51433	825
3.51800	823
3.52167	819
3.52533	815
3.52900	814
3.53267	815
3.53633	816
3.54000	816
3.54367	816
3.54733	816
3.55100	817
3.55467	816
3.55833	817
3.56200	817
3.56567	818
3.56933	818
3.57300	816
3.57667	812
3.58033	807
3.58400	805
3.58767	806
3.59133	808
3.59500	809
3.59867	808
3.60233	807
3.60600	807
3.60967	805
3.61333	804
3.61700	805
3.62067	804
3.62433	802
3.62800	799
3.63167	795
3.63533	793
3.63900	791
3.64267	789
3.64633	787
3.65000	785
3.65367	781
3.65733	779
3.66100	778
3.66467	776
3.66833	775
3.67200	774
3.67567	773
3.67933	772
3.68300	767
3.68667	763
3.69033	760
3.69400	759
3.69767	758
3.70133	757
3.70500	756
3.70867	754
3.71233	751
3.71600	748
3.71967	747
3.72333	746
3.72700	743
3.73067	741
3.73433	739
3.73800	736
3.74167	734
3.74533	733
3.74900	732
3.75267	730
3.75633	729
3.76000	728
3.76367	726
3.76733	723
3.77100	718
3.77467	715
3.77833	712
3.78200	708
3.78567	706
3.78933	704
3.79300	701
3.79667	696
3.80033	693
3.80400	692
3.80767	691
3.81133	691
3.81500	690
3.81867	688
3.82233	685
3.82600	682
3.82967	680
3.83333	678
3.83700	676
3.84067	674
3.84433	672
3.84800	668
3.85167	666
3.85533	664
3.85900	662
3.86267	659
3.86633	655
3.87000	650
3.87367	647
3.87733	647
3.88100	648
3.88467	647
3.88833	646
3.89200	644
3.89567	643
3.89933	643
3.90300	642
3.90667	640
3.91033	638
3.91400	637
3.91767	636
3.92133	634
3.92500	632
3.92867	629
3.93233	625
3.93600	622
3.93967	620
3.94333	618
3.94700	616
3.95067	615
3.95433	615
3.95800	616
3.96167	614
3.96533	612
3.96900	611
3.97267	609
3.97633	607
3.98000	604
3.98367	604
3.98733	602
3.99100	600
3.99467	598
3.99833	594

[Status Trace (Column Oven Temperature)]
Interval(msec)	1000
# of Points	240
Start Time(min)	0.013
End Time(min)	3.996
Intensity Units	
Intensity Multiplier	1
R.Time (min)	Intensity
0.01280	35.06
0.02947	35.06
0.04613	35.06
0.06280	35.06
0.07947	35.06
0.09613	35.06
0.11280	35.05
0.12947	35.04
0.14613	35.03
0.16280	35.02
0.17947	35.01
0.19613	35.02
0.21280	35.02
0.22947	35.02
0.24613	35.01
0.26280	35.01
0.27947	35.01
0.29613	35.01
0.31280	35.02
0.32947	35.01
0.34613	35.01
0.36280	35.01
0.37947	35.01
0.39613	35.00
0.41280	35.00
0.42947	35.00
0.44613	35.01
0.46280	35.02
0.47947	35.02
0.49613	35.02
0.51280	35.03
0.52947	35.03
0.54613	35.02
0.56280	35.02
0.57947	35.02
0.59613	35.01
0.61280	35.01
0.62947	35.00
0.64613	34.99
0.66280	34.99
0.67947	34.98
0.69613	34.99
0.71280	34.99
0.72947	35.00
0.74613	35.01
0.76280	35.00
0.77947	34.98
0.79613	34.96
0.81280	34.96
0.82947	34.98
0.84613	35.00
0.86280	35.02
0.87947	35.02
0.89613	35.01
0.91280	35.00
0.92947	35.00
0.94613	35.00
0.96280	34.99
0.97947	34.99
0.99613	34.99
1.01280	35.00
1.02947	35.01
1.04613	35.01
1.06280	35.00
1.07947	35.00
1.09613	34.98
1.11280	34.96
1.12947	34.95
1.14613	34.97
1.16280	34.98
1.17947	34.99
1.19613	35.00
1.21280	35.01
1.22947	35.01
1.24613	35.00
1.26280	35.00
1.27947	35.01
1.29613	35.00
1.31280	35.00
1.32947	35.00
1.34613	35.00
1.36280	35.01
1.37947	35.00
1.39613	35.00
1.41280	35.00
1.42947	35.00
1.44613	35.00
1.46280	35.00
1.47947	35.00
1.49613	35.00
1.51280	34.99
1.52947	34.98
1.54613	34.96
1.56280	34.97
1.57947	34.97
1.59613	35.00
1.61280	35.08
1.62947	35.23
1.64613	35.46
1.66280	35.72
1.67947	36.06
1.69613	36.43
1.71280	36.78
1.72947	37.10
1.74613	37.44
1.76280	37.79
1.77947	38.09
1.79613	38.43
1.81280	38.76
1.82947	39.09
1.84613	39.41
1.86280	39.77
1.87947	40.09
1.89613	40.43
1.91280	40.76
1.92947	41.09
1.94613	41.41
1.96280	41.75
1.97947	42.07
1.99613	42.39
2.01280	42.72
2.02947	43.04
2.04613	43.37
2.06280	43.69
2.07947	44.01
2.09613	44.35
2.11280	44.66
2.12947	44.99
2.14613	45.32
2.16280	45.63
2.17947	45.94
2.19613	46.27
2.21280	46.60
2.22947	46.94
2.24613	47.27
2.26280	47.61
2.27947	47.94
2.29613	48.27
2.31280	48.61
2.32947	48.93
2.34613	49.23
2.36280	49.52
2.37947	49.69
2.39613	49.73
2.41280	49.71
2.42947	49.71
2.44613	49.73
2.46280	49.73
2.47947	49.74
2.49613	49.74
2.51280	49.76
2.52947	49.78
2.54613	49.77
2.56280	49.79
2.57947	49.81
2.59613	49.83
2.61280	49.83
2.62947	49.83
2.64613	49.84
2.66280	49.85
2.67947	49.86
2.69613	49.85
2.71280	49.84
2.72947	49.86
2.74613	49.87
2.76280	49.86
2.77947	49.85
2.79613	49.85
2.81280	49.86
2.82947	49.86
2.84613	49.86
2.86280	49.88
2.87947	49.89
2.89613	49.90
2.91280	49.91
2.92947	49.92
2.94613	49.93
2.96280	49.95
2.97947	49.97
2.99613	50.00
3.01280	50.01
3.02947	50.00
3.04613	50.01
3.06280	50.01
3.07947	50.01
3.09613	50.01
3.11280	50.02
3.12947	50.04
3.14613	50.04
3.16280	50.05
3.17947	50.05
3.19613	50.07
3.21280	50.09
3.22947	50.09
3.24613	50.09
3.26280	50.09
3.27947	50.10
3.29613	50.09
3.31280	50.09
3.32947	50.09
3.34613	50.09
3.36280	50.10
3.37947	50.10
3.39613	50.10
3.41280	50.09
3.42947	50.09
3.44613	50.09
3.46280	50.09
3.47947	50.09
3.49613	50.09
3.51280	50.08
3.52947	50.09
3.54613	50.10
3.56280	50.10
3.57947	50.11
3.59613	50.10
3.61280	50.08
3.62947	50.07
3.64613	50.05
3.66280	50.04
3.67947	50.02
3.69613	50.00
3.71280	50.00
3.72947	50.00
3.74613	50.00
3.76280	50.01
3.77947	50.01
3.79613	50.01
3.81280	50.01
3.82947	50.00
3.84613	49.99
3.86280	49.99
3.87947	50.01
3.89613	50.01
3.91280	50.02
3.92947	50.03
3.94613	50.05
3.96280	50.05
3.97947	50.06
3.99613	50.06

[Status Trace (Injection Unit Temperature)]
Interval(msec)	1000
# of Points	240
Start Time(min)	0.013
End Time(min)	3.996
Intensity Units	
Intensity Multiplier	1
R.Time (min)	Intensity
0.01280	99.98
0.02947	99.98
0.04613	99.98
0.06280	99.98
0.07947	99.98
0.09613	99.98
0.11280	99.98
0.12947	99.98
0.14613	99.98
0.16280	99.98
0.17947	99.98
0.19613	99.98
0.21280	99.98
0.22947	99.98
0.24613	99.98
0.26280	99.98
0.27947	99.98
0.29613	99.98
0.31280	99.98
0.32947	99.98
0.34613	99.98
0.36280	99.98
0.37947	99.98
0.39613	99.98
0.41280	99.98
0.42947	99.98
0.44613	99.98
0.46280	99.98
0.47947	99.98
0.49613	99.98
0.51280	99.98
0.52947	99.98
0.54613	99.98
0.56280	99.98
0.57947	99.98
0.59613	99.98
0.61280	99.99
0.62947	99.98
0.64613	99.98
0.66280	99.98
0.67947	99.98
0.69613	99.98
0.71280	99.98
0.72947	99.98
0.74613	99.98
0.76280	99.97
0.77947	99.98
0.79613	99.98
0.81280	99.99
0.82947	99.98
0.84613	99.98
0.86280	99.99
0.87947	99.98
0.89613	99.98
0.91280	99.98
0.92947	99.98
0.94613	99.98
0.96280	99.98
0.97947	99.98
0.99613	99.98
1.01280	99.98
1.02947	99.99
1.04613	99.98
1.06280	99.98
1.07947	99.98
1.09613	99.99
1.11280	99.98
1.12947	99.98
1.14613	99.98
1.16280	99.98
1.17947	99.98
1.19613	99.98
1.21280	99.98
1.22947	99.98
1.24613	99.98
1.26280	99.99
1.27947	99.98
1.29613	99.98
1.31280	99.98
1.32947	99.98
1.34613	99.98
1.36280	99.98
1.37947	99.99
1.39613	99.99
1.41280	99.98
1.42947	99.98
1.44613	99.98
1.46280	99.98
1.47947	99.98
1.49613	99.98
1.51280	99.98
1.52947	99.98
1.54613	99.98
1.56280	99.98
1.57947	99.98
1.59613	99.98
1.61280	99.98
1.62947	99.98
1.64613	99.98
1.66280	99.98
1.67947	99.98
1.69613	99.98
1.71280	99.98
1.72947	99.99
1.74613	99.99
1.76280	99.98
1.77947	99.98
1.79613	99.98
1.81280	99.98
1.82947	99.98
1.84613	99.99
1.86280	99.98
1.87947	99.98
1.89613	99.98
1.91280	99.98
1.92947	99.97
1.94613	99.98
1.96280	99.98
1.97947	99.98
1.99613	99.97
2.01280	99.97
2.02947	99.97
2.04613	99.97
2.06280	99.97
2.07947	99.97
2.09613	99.97
2.11280	99.97
2.12947	99.96
2.14613	99.96
2.16280	99.97
2.17947	99.96
2.19613	99.96
2.21280	99.96
2.22947	99.96
2.24613	99.96
2.26280	99.96
2.27947	99.97
2.29613	99.96
2.31280	99.97
2.32947	99.97
2.34613	99.97
2.36280	99.97
2.37947	99.97
2.39613	99.97
2.41280	99.97
2.42947	99.97
2.44613	99.97
2.46280	99.97
2.47947	99.97
2.49613	99.97
2.51280	99.97
2.52947	99.97
2.54613	99.97
2.56280	99.98
2.57947	99.98
2.59613	99.98
2.61280	99.98
2.62947	99.98
2.64613	99.98
2.66280	99.98
2.67947	99.99
2.69613	99.98
2.71280	99.99
2.72947	99.99
2.74613	100.00
2.76280	100.00
2.77947	100.00
2.79613	99.99
2.81280	100.00
2.82947	100.00
2.84613	100.00
2.86280	100.01
2.87947	100.00
2.89613	100.00
2.91280	100.00
2.92947	100.01
2.94613	100.01
2.96280	100.01
2.97947	100.01
2.99613	100.01
3.01280	100.01
3.02947	100.02
3.04613	100.01
3.06280	100.01
3.07947	100.02
3.09613	100.02
3.11280	100.02
3.12947	100.02
3.14613	100.02
3.16280	100.02
3.17947	100.02
3.19613	100.02
3.21280	100.03
3.22947	100.03
3.24613	100.03
3.26280	100.03
3.27947	100.03
3.29613	100.03
3.31280	100.03
3.32947	100.03
3.34613	100.03
3.36280	100.03
3.37947	100.03
3.39613	100.03
3.41280	100.03
3.42947	100.03
3.44613	100.03
3.46280	100.04
3.47947	100.04
3.49613	100.03
3.51280	100.03
3.52947	100.04
3.54613	100.04
3.56280	100.04
3.57947	100.04
3.59613	100.04
3.61280	100.04
3.62947	100.04
3.64613	100.04
3.66280	100.04
3.67947	100.04
3.69613	100.04
3.71280	100.05
3.72947	100.04
3.74613	100.05
3.76280	100.05
3.77947	100.04
3.79613	100.05
3.81280	100.05
3.82947	100.05
3.84613	100.05
3.86280	100.05
3.87947	100.05
3.89613	100.05
3.91280	100.05
3.92947	100.05
3.94613	100.05
3.96280	100.05
3.97947	100.04
3.99613	100.05

[Status Trace (Carrier Gas Pressure)]
Interval(msec)	1000
# of Points	240
Start Time(min)	0.013
End Time(min)	3.996
Intensity Units	
Intensity Multiplier	1
R.Time (min)	Intensity
0.01280	57.96
0.02947	55.20
0.04613	57.75
0.06280	59.76
0.07947	58.76
0.09613	57.99
0.11280	57.99
0.12947	58.01
0.14613	58.01
0.16280	58.00
0.17947	58.00
0.19613	58.00
0.21280	58.00
0.22947	58.00
0.24613	58.00
0.26280	58.00
0.27947	58.00
0.29613	58.00
0.31280	58.00
0.32947	58.00
0.34613	58.00
0.36280	58.00
0.37947	58.00
0.39613	58.00
0.41280	58.00
0.42947	58.00
0.44613	58.00
0.46280	58.00
0.47947	58.00
0.49613	58.00
0.51280	58.00
0.52947	58.00
0.54613	58.00
0.56280	58.00
0.57947	58.00
0.59613	58.00
0.61280	58.00
0.62947	58.00
0.64613	58.00
0.66280	58.00
0.67947	58.00
0.69613	58.00
0.71280	58.00
0.72947	58.00
0.74613	58.00
0.76280	58.00
0.77947	58.00
0.79613	58.00
0.81280	58.00
0.82947	58.00
0.84613	58.00
0.86280	58.00
0.87947	58.00
0.89613	58.00
0.91280	58.00
0.92947	58.00
0.94613	58.00
0.96280	58.00
0.97947	58.00
0.99613	58.00
1.01280	58.00
1.02947	58.00
1.04613	58.00
1.06280	58.00
1.07947	58.00
1.09613	58.00
1.11280	58.00
1.12947	58.00
1.14613	58.00
1.16280	58.00
1.17947	58.00
1.19613	58.00
1.21280	58.00
1.22947	58.00
1.24613	58.00
1.26280	58.00
1.27947	58.00
1.29613	58.00
1.31280	58.00
1.32947	58.00
1.34613	58.00
1.36280	58.00
1.37947	58.00
1.39613	58.00
1.41280	58.00
1.42947	58.00
1.44613	58.00
1.46280	58.00
1.47947	58.00
1.49613	58.00
1.51280	58.00
1.52947	58.00
1.54613	58.00
1.56280	58.00
1.57947	58.00
1.59613	58.00
1.61280	58.00
1.62947	58.00
1.64613	58.01
1.66280	58.00
1.67947	58.01
1.69613	58.00
1.71280	58.00
1.72947	58.00
1.74613	58.00
1.76280	58.00
1.77947	58.00
1.79613	58.00
1.81280	58.00
1.82947	58.00
1.84613	58.00
1.86280	58.00
1.87947	58.00
1.89613	58.00
1.91280	58.00
1.92947	58.00
1.94613	58.00
1.96280	58.00
1.97947	58.00
1.99613	58.00
2.01280	58.00
2.02947	58.00
2.04613	58.00
2.06280	58.00
2.07947	58.00
2.09613	58.00
2.11280	58.00
2.12947	58.00
2.14613	58.00
2.16280	58.00
2.17947	58.00
2.19613	58.00
2.21280	58.00
2.22947	58.00
2.24613	58.00
2.26280	58.00
2.27947	58.00
2.29613	58.00
2.31280	58.00
2.32947	58.00
2.34613	58.00
2.36280	58.00
2.37947	57.99
2.39613	57.99
2.41280	57.99
2.42947	58.00
2.44613	58.00
2.46280	58.00
2.47947	58.00
2.49613	58.00
2.51280	57.99
2.52947	57.99
2.54613	58.00
2.56280	58.00
2.57947	58.00
2.59613	58.00
2.61280	58.00
2.62947	58.00
2.64613	58.00
2.66280	58.00
2.67947	58.00
2.69613	58.00
2.71280	58.00
2.72947	58.00
2.74613	58.00
2.76280	58.00
2.77947	58.00
2.79613	58.00
2.81280	58.00
2.82947	58.00
2.84613	58.00
2.86280	58.00
2.87947	58.00
2.89613	58.00
2.91280	58.00
2.92947	58.00
2.94613	58.00
2.96280	58.00
2.97947	58.00
2.99613	58.00
3.01280	58.00
3.02947	58.00
3.04613	58.00
3.06280	58.00
3.07947	58.00
3.09613	58.00
3.11280	58.00
3.12947	58.00
3.14613	58.00
3.16280	58.00
3.17947	58.00
3.19613	58.00
3.21280	58.00
3.22947	58.00
3.24613	58.00
3.26280	58.00
3.27947	58.00
3.29613	58.00
3.31280	58.00
3.32947	58.00
3.34613	58.00
3.36280	58.00
3.37947	58.00
3.39613	58.00
3.41280	58.00
3.42947	58.00
3.44613	58.00
3.46280	58.00
3.47947	58.00
3.49613	58.00
3.51280	58.00
3.52947	58.00
3.54613	58.00
3.56280	58.00
3.57947	58.00
3.59613	58.00
3.61280	58.00
3.62947	58.00
3.64613	58.00
3.66280	58.00
3.67947	58.00
3.69613	58.00
3.71280	58.00
3.72947	58.00
3.74613	58.00
3.76280	58.00
3.77947	58.00
3.79613	58.00
3.81280	58.00
3.82947	58.00
3.84613	58.00
3.86280	58.00
3.87947	58.00
3.89613	58.00
3.91280	58.00
3.92947	58.00
3.94613	58.00
3.96280	58.00
3.97947	58.00
3.99613	58.00

[Status Trace (Carrier Gas Flow)]
Interval(msec)	1000
# of Points	240
Start Time(min)	0.013
End Time(min)	3.996
Intensity Units	
Intensity Multiplier	1
R.Time (min)	Intensity
0.01280	34.65
0.02947	34.54
0.04613	34.55
0.06280	34.53
0.07947	34.51
0.09613	34.52
0.11280	34.51
0.12947	34.52
0.14613	34.51
0.16280	34.52
0.17947	34.52
0.19613	34.52
0.21280	34.52
0.22947	34.52
0.24613	34.52
0.26280	34.52
0.27947	34.52
0.29613	34.52
0.31280	34.52
0.32947	34.52
0.34613	34.52
0.36280	34.52
0.37947	34.51
0.39613	34.52
0.41280	34.53
0.42947	34.52
0.44613	34.52
0.46280	34.52
0.47947	34.52
0.49613	34.51
0.51280	34.52
0.52947	34.52
0.54613	34.52
0.56280	34.52
0.57947	34.52
0.59613	34.53
0.61280	34.52
0.62947	34.52
0.64613	34.52
0.66280	34.52
0.67947	34.52
0.69613	34.52
0.71280	34.52
0.72947	34.52
0.74613	34.52
0.76280	34.52
0.77947	34.52
0.79613	34.52
0.81280	34.51
0.82947	34.52
0.84613	34.52
0.86280	34.52
0.87947	34.52
0.89613	34.52
0.91280	34.52
0.92947	34.52
0.94613	34.52
0.96280	34.52
0.97947	34.52
0.99613	34.52
1.01280	34.52
1.02947	34.52
1.04613	34.52
1.06280	34.52
1.07947	34.51
1.09613	34.52
1.11280	34.52
1.12947	34.51
1.14613	34.52
1.16280	34.52
1.17947	34.53
1.19613	34.51
1.21280	34.52
1.22947	34.53
1.24613	34.52
1.26280	34.52
1.27947	34.52
1.29613	34.52
1.31280	34.52
1.32947	34.52
1.34613	34.52
1.36280	34.52
1.37947	34.52
1.39613	34.52
1.41280	34.52
1.42947	34.51
1.44613	34.52
1.46280	34.52
1.47947	34.53
1.49613	34.52
1.51280	34.52
1.52947	34.52
1.54613	34.52
1.56280	34.52
1.57947	34.52
1.59613	34.51
1.61280	34.52
1.62947	34.52
1.64613	34.52
1.66280	34.51
1.67947	34.52
1.69613	34.52
1.71280	34.52
1.72947	34.52
1.74613	34.52
1.76280	34.52
1.77947	34.52
1.79613	34.52
1.81280	34.52
1.82947	34.52
1.84613	34.52
1.86280	34.52
1.87947	34.52
1.89613	34.51
1.91280	34.52
1.92947	34.51
1.94613	34.52
1.96280	34.52
1.97947	34.52
1.99613	34.52
2.01280	34.52
2.02947	34.52
2.04613	34.52
2.06280	34.52
2.07947	34.52
2.09613	34.52
2.11280	34.52
2.12947	34.52
2.14613	34.52
2.16280	34.51
2.17947	34.52
2.19613	34.52
2.21280	34.52
2.22947	34.52
2.24613	34.52
2.26280	34.52
2.27947	34.52
2.29613	34.52
2.31280	34.52
2.32947	34.52
2.34613	34.51
2.36280	34.52
2.37947	34.51
2.39613	34.52
2.41280	34.52
2.42947	34.52
2.44613	34.52
2.46280	34.52
2.47947	34.52
2.49613	34.52
2.51280	34.51
2.52947	34.51
2.54613	34.52
2.56280	34.52
2.57947	34.52
2.59613	34.52
2.61280	34.52
2.62947	34.52
2.64613	34.52
2.66280	34.51
2.67947	34.52
2.69613	34.52
2.71280	34.52
2.72947	34.51
2.74613	34.52
2.76280	34.52
2.77947	34.53
2.79613	34.52
2.81280	34.52
2.82947	34.51
2.84613	34.51
2.86280	34.52
2.87947	34.51
2.89613	34.52
2.91280	34.52
2.92947	34.52
2.94613	34.52
2.96280	34.52
2.97947	34.53
2.99613	34.52
3.01280	34.52
3.02947	34.52
3.04613	34.51
3.06280	34.51
3.07947	34.52
3.09613	34.51
3.11280	34.51
3.12947	34.52
3.14613	34.52
3.16280	34.52
3.17947	34.52
3.19613	34.52
3.21280	34.52
3.22947	34.52
3.24613	34.52
3.26280	34.52
3.27947	34.52
3.29613	34.52
3.31280	34.51
3.32947	34.52
3.34613	34.52
3.36280	34.52
3.37947	34.51
3.39613	34.52
3.41280	34.52
3.42947	34.52
3.44613	34.52
3.46280	34.52
3.47947	34.52
3.49613	34.52
3.51280	34.52
3.52947	34.52
3.54613	34.52
3.56280	34.52
3.57947	34.52
3.59613	34.52
3.61280	34.52
3.62947	34.52
3.64613	34.52
3.66280	34.52
3.67947	34.52
3.69613	34.52
3.71280	34.52
3.72947	34.52
3.74613	34.52
3.76280	34.52
3.77947	34.52
3.79613	34.52
3.81280	34.52
3.82947	34.52
3.84613	34.53
3.86280	34.52
3.87947	34.51
3.89613	34.52
3.91280	34.52
3.92947	34.52
3.94613	34.52
3.96280	34.52
3.97947	34.51
3.99613	34.52

[Status Trace (Column Flow)]
Interval(msec)	1000
# of Points	240
Start Time(min)	0.013
End Time(min)	3.996
Intensity Units	
Intensity Multiplier	1
R.Time (min)	Intensity
0.01280	5.53
0.02947	5.21
0.04613	5.51
0.06280	5.74
0.07947	5.62
0.09613	5.53
0.11280	5.54
0.12947	5.54
0.14613	5.54
0.16280	5.54
0.17947	5.54
0.19613	5.54
0.21280	5.54
0.22947	5.54
0.24613	5.54
0.26280	5.54
0.27947	5.54
0.29613	5.54
0.31280	5.54
0.32947	5.54
0.34613	5.54
0.36280	5.54
0.37947	5.54
0.39613	5.54
0.41280	5.54
0.42947	5.54
0.44613	5.54
0.46280	5.54
0.47947	5.54
0.49613	5.54
0.51280	5.54
0.52947	5.54
0.54613	5.54
0.56280	5.54
0.57947	5.54
0.59613	5.54
0.61280	5.54
0.62947	5.54
0.64613	5.54
0.66280	5.54
0.67947	5.54
0.69613	5.54
0.71280	5.54
0.72947	5.54
0.74613	5.54
0.76280	5.54
0.77947	5.54
0.79613	5.54
0.81280	5.54
0.82947	5.54
0.84613	5.54
0.86280	5.54
0.87947	5.54
0.89613	5.54
0.91280	5.54
0.92947	5.54
0.94613	5.54
0.96280	5.54
0.97947	5.54
0.99613	5.54
1.01280	5.54
1.02947	5.54
1.04613	5.54
1.06280	5.54
1.07947	5.54
1.09613	5.54
1.11280	5.54
1.12947	5.54
1.14613	5.54
1.16280	5.54
1.17947	5.54
1.19613	5.54
1.21280	5.54
1.22947	5.54
1.24613	5.54
1.26280	5.54
1.27947	5.54
1.29613	5.54
1.31280	5.54
1.32947	5.54
1.34613	5.54
1.36280	5.54
1.37947	5.54
1.39613	5.54
1.41280	5.54
1.42947	5.54
1.44613	5.54
1.46280	5.54
1.47947	5.54
1.49613	5.54
1.51280	5.54
1.52947	5.54
1.54613	5.54
1.56280	5.54
1.57947	5.54
1.59613	5.54
1.61280	5.54
1.62947	5.53
1.64613	5.52
1.66280	5.52
1.67947	5.50
1.69613	5.49
1.71280	5.48
1.72947	5.47
1.74613	5.46
1.76280	5.45
1.77947	5.44
1.79613	5.43
1.81280	5.42
1.82947	5.41
1.84613	5.40
1.86280	5.39
1.87947	5.38
1.89613	5.37
1.91280	5.36
1.92947	5.35
1.94613	5.34
1.96280	5.33
1.97947	5.32
1.99613	5.31
2.01280	5.30
2.02947	5.29
2.04613	5.28
2.06280	5.27
2.07947	5.26
2.09613	5.25
2.11280	5.24
2.12947	5.24
2.14613	5.23
2.16280	5.22
2.17947	5.21
2.19613	5.20
2.21280	5.19
2.22947	5.18
2.24613	5.17
2.26280	5.16
2.27947	5.15
2.29613	5.14
2.31280	5.13
2.32947	5.12
2.34613	5.11
2.36280	5.11
2.37947	5.10
2.39613	5.10
2.41280	5.10
2.42947	5.10
2.44613	5.10
2.46280	5.10
2.47947	5.10
2.49613	5.10
2.51280	5.10
2.52947	5.10
2.54613	5.10
2.56280	5.10
2.57947	5.10
2.59613	5.10
2.61280	5.10
2.62947	5.10
2.64613	5.10
2.66280	5.10
2.67947	5.10
2.69613	5.10
2.71280	5.10
2.72947	5.10
2.74613	5.10
2.76280	5.10
2.77947	5.10
2.79613	5.10
2.81280	5.10
2.82947	5.10
2.84613	5.10
2.86280	5.10
2.87947	5.10
2.89613	5.10
2.91280	5.10
2.92947	5.10
2.94613	5.09
2.96280	5.09
2.97947	5.09
2.99613	5.09
3.01280	5.09
3.02947	5.09
3.04613	5.09
3.06280	5.09
3.07947	5.09
3.09613	5.09
3.11280	5.09
3.12947	5.09
3.14613	5.09
3.16280	5.09
3.17947	5.09
3.19613	5.09
3.21280	5.09
3.22947	5.09
3.24613	5.09
3.26280	5.09
3.27947	5.09
3.29613	5.09
3.31280	5.09
3.32947	5.09
3.34613	5.09
3.36280	5.09
3.37947	5.09
3.39613	5.09
3.41280	5.09
3.42947	5.09
3.44613	5.09
3.46280	5.09
3.47947	5.09
3.49613	5.09
3.51280	5.09
3.52947	5.09
3.54613	5.09
3.56280	5.09
3.57947	5.09
3.59613	5.09
3.61280	5.09
3.62947	5.09
3.64613	5.09
3.66280	5.09
3.67947	5.09
3.69613	5.09
3.71280	5.09
3.72947	5.09
3.74613	5.09
3.76280	5.09
3.77947	5.09
3.79613	5.09
3.81280	5.09
3.82947	5.09
3.84613	5.09
3.86280	5.09
3.87947	5.09
3.89613	5.09
3.91280	5.09
3.92947	5.09
3.94613	5.09
3.96280	5.09
3.97947	5.09
3.99613	5.09

[Status Trace (Linear Velocity)]
Interval(msec)	1000
# of Points	240
Start Time(min)	0.013
End Time(min)	3.996
Intensity Units	
Intensity Multiplier	1
R.Time (min)	Intensity
0.01280	38.99
0.02947	37.18
0.04613	38.85
0.06280	40.17
0.07947	39.52
0.09613	39.01
0.11280	39.01
0.12947	39.02
0.14613	39.02
0.16280	39.02
0.17947	39.02
0.19613	39.02
0.21280	39.02
0.22947	39.02
0.24613	39.02
0.26280	39.02
0.27947	39.02
0.29613	39.02
0.31280	39.02
0.32947	39.02
0.34613	39.02
0.36280	39.02
0.37947	39.02
0.39613	39.02
0.41280	39.02
0.42947	39.02
0.44613	39.02
0.46280	39.02
0.47947	39.02
0.49613	39.02
0.51280	39.02
0.52947	39.02
0.54613	39.02
0.56280	39.02
0.57947	39.02
0.59613	39.02
0.61280	39.02
0.62947	39.02
0.64613	39.02
0.66280	39.02
0.67947	39.02
0.69613	39.02
0.71280	39.02
0.72947	39.02
0.74613	39.02
0.76280	39.02
0.77947	39.02
0.79613	39.02
0.81280	39.03
0.82947	39.02
0.84613	39.02
0.86280	39.02
0.87947	39.02
0.89613	39.02
0.91280	39.02
0.92947	39.02
0.94613	39.02
0.96280	39.02
0.97947	39.02
0.99613	39.02
1.01280	39.02
1.02947	39.02
1.04613	39.02
1.06280	39.02
1.07947	39.02
1.09613	39.02
1.11280	39.02
1.12947	39.03
1.14613	39.02
1.16280	39.02
1.17947	39.02
1.19613	39.02
1.21280	39.02
1.22947	39.02
1.24613	39.02
1.26280	39.02
1.27947	39.02
1.29613	39.02
1.31280	39.02
1.32947	39.02
1.34613	39.02
1.36280	39.02
1.37947	39.02
1.39613	39.02
1.41280	39.02
1.42947	39.02
1.44613	39.02
1.46280	39.02
1.47947	39.02
1.49613	39.02
1.51280	39.02
1.52947	39.02
1.54613	39.02
1.56280	39.02
1.57947	39.02
1.59613	39.02
1.61280	39.01
1.62947	39.00
1.64613	38.98
1.66280	38.95
1.67947	38.92
1.69613	38.89
1.71280	38.85
1.72947	38.82
1.74613	38.79
1.76280	38.75
1.77947	38.72
1.79613	38.69
1.81280	38.66
1.82947	38.63
1.84613	38.60
1.86280	38.57
1.87947	38.54
1.89613	38.51
1.91280	38.47
1.92947	38.44
1.94613	38.41
1.96280	38.38
1.97947	38.35
1.99613	38.32
2.01280	38.29
2.02947	38.26
2.04613	38.23
2.06280	38.20
2.07947	38.17
2.09613	38.14
2.11280	38.11
2.12947	38.09
2.14613	38.05
2.16280	38.03
2.17947	38.00
2.19613	37.97
2.21280	37.94
2.22947	37.91
2.24613	37.88
2.26280	37.85
2.27947	37.82
2.29613	37.79
2.31280	37.76
2.32947	37.73
2.34613	37.70
2.36280	37.68
2.37947	37.66
2.39613	37.66
2.41280	37.66
2.42947	37.66
2.44613	37.66
2.46280	37.66
2.47947	37.66
2.49613	37.66
2.51280	37.65
2.52947	37.65
2.54613	37.66
2.56280	37.66
2.57947	37.65
2.59613	37.65
2.61280	37.65
2.62947	37.65
2.64613	37.65
2.66280	37.65
2.67947	37.65
2.69613	37.65
2.71280	37.65
2.72947	37.65
2.74613	37.65
2.76280	37.65
2.77947	37.65
2.79613	37.65
2.81280	37.65
2.82947	37.65
2.84613	37.65
2.86280	37.65
2.87947	37.65
2.89613	37.64
2.91280	37.64
2.92947	37.64
2.94613	37.64
2.96280	37.64
2.97947	37.64
2.99613	37.64
3.01280	37.64
3.02947	37.64
3.04613	37.64
3.06280	37.63
3.07947	37.64
3.09613	37.64
3.11280	37.63
3.12947	37.63
3.14613	37.63
3.16280	37.63
3.17947	37.63
3.19613	37.63
3.21280	37.63
3.22947	37.63
3.24613	37.63
3.26280	37.63
3.27947	37.63
3.29613	37.63
3.31280	37.63
3.32947	37.63
3.34613	37.63
3.36280	37.63
3.37947	37.63
3.39613	37.63
3.41280	37.63
3.42947	37.63
3.44613	37.63
3.46280	37.63
3.47947	37.63
3.49613	37.63
3.51280	37.63
3.52947	37.63
3.54613	37.63
3.56280	37.63
3.57947	37.63
3.59613	37.63
3.61280	37.63
3.62947	37.63
3.64613	37.63
3.66280	37.63
3.67947	37.63
3.69613	37.64
3.71280	37.64
3.72947	37.64
3.74613	37.64
3.76280	37.64
3.77947	37.64
3.79613	37.63
3.81280	37.64
3.82947	37.64
3.84613	37.64
3.86280	37.64
3.87947	37.64
3.89613	37.64
3.91280	37.63
3.92947	37.63
3.94613	37.63
3.96280	37.63
3.97947	37.63
3.99613	37.63

