[Header]
Application Name	LabSolutions
Version	5.110
Data File Name	C:\Users\User\Desktop\GC Analyses\Jack\Nachusa Grasslands Sampling\T3 Timepoint July 12th\T3_07122022_077.gcd
Output Date	3/14/2023
Output Time	3:43:35 PM

[File Information]
Type	Data File
Generated	3/13/2023 11:06:11 PM
Generated by	System Administrator
Modified	3/13/2023 11:12:59 PM
Modified by	System Administrator

[Sample Information]
Operator Name	System Administrator
Acquired	3/13/2023 11:08:58 PM
Sample Type	0:Unknown
Level	0
Sample Name	077
Sample ID	077
ISTD Amount1	1
ISTD Amount2	1
ISTD Amount3	1
ISTD Amount4	1
ISTD Amount5	1
ISTD Amount6	1
ISTD Amount7	1
ISTD Amount8	1
ISTD Amount9	1
ISTD Amount10	1
ISTD Amount11	1
ISTD Amount12	1
ISTD Amount13	1
ISTD Amount14	1
ISTD Amount15	1
ISTD Amount16	1
ISTD Amount17	1
ISTD Amount18	1
ISTD Amount19	1
ISTD Amount20	1
ISTD Amount21	1
ISTD Amount22	1
ISTD Amount23	1
ISTD Amount24	1
ISTD Amount25	1
ISTD Amount26	1
ISTD Amount27	1
ISTD Amount28	1
ISTD Amount29	1
ISTD Amount30	1
ISTD Amount31	1
ISTD Amount32	1
Sample Amount	1
Dilution Factor	1
Vial#	76
Injection Volume	1
Injection Count	1
Bar Code	

[Original Files]
Data File	C:\Users\User\Desktop\GC Analyses\Jack\Nachusa Grasslands Sampling\T3 Timepoint July 12th\T3_07122022_077.gcd
Method File	C:\LabSolutions\Data\GHG_4min_2022\ghg3_togas_w_acet_4 min_new_int.gcm
Batch File	C:\LabSolutions\Data\AutoSamplerTesting\T3_07122022.gcb
Report Format File	c:\LabSolutions\System\DEFAULT.lsr

[File Description]


[Configuration]
Instrument Name	C0B7VH3-Instrument1
Instrument #	1
Line #	1
# of Detectors	3
Detector ID	DET#1	DET#2	DET#3
Detector Name	FID	PTCD	ECD
# of Channels	1	1	1

[Peak Table(Ch1)]
# of Peaks	3
Peak#	R.Time	I.Time	F.Time	Area	Height	A/H	Conc.	Mark	ID#	Name	k'	Plate #	Plate Ht.	Tailing	Resolution	Sep.Factor	Area Ratio	Height Ratio	Conc. %	Norm Conc.
1	1.454	1.439	1.472	487	464	1.051	3.440	   	1	CO	0.000	35602	4.213	1.158	0.000	0.000	0	0	0.365	0.365
2	1.571	1.534	1.652	20944	10486	1.997	404.972	   	2	CH4	0.081	11486	13.059	1.146	2.623	0.000	0	0	43.027	43.027
3	1.996	1.952	2.348	2122914	1015362	2.091	532.794	   	3	CO2	0.373	17392	8.624	1.336	7.137	4.625	0	0	56.608	56.608

[Peak Table(Ch2)]
# of Peaks	0

[Peak Table(Ch3)]
# of Peaks	5
Peak#	R.Time	I.Time	F.Time	Area	Height	A/H	Conc.	Mark	ID#	Name	k'	Plate #	Plate Ht.	Tailing	Resolution	Sep.Factor	Area Ratio	Height Ratio	Conc. %	Norm Conc.
1	2.458	2.330	2.510	2048	687	2.980	0.000	   			0.000	12864	11.661	0.000	0.000	0.000	0	0	0.000	0.000
2	2.528	2.510	2.579	855	315	2.714	0.000	 V 			0.028	9424	15.917	0.000	0.730	0.000	0	0	0.000	0.000
3	2.612	2.579	2.686	500	123	4.078	0.000	 V 			0.063	3050	49.176	0.000	0.575	2.211	0	0	0.000	0.000
4	2.880	2.700	3.027	58368	15066	3.874	1.491	   	1	N2O	0.172	12652	11.856	1.533	1.836	2.738	0	0	100.000	100.000
5	3.283	3.030	3.995	21332	649	32.859	0.000	   	2	SF6	0.336	155	970.567	1.836	0.696	1.957	0	0	0.000	0.000

[Compound Results(Ch1)]
# of IDs	6
ID#	Name	R.Time	Area	Height	Conc.	Curve	3rd	2nd	1st	Constant	Area Ratio	Height Ratio	Conc. %	Norm Conc.
1	CO	1.454	487	464	3.440	Linear	0.000000e+00	0.000000e+00	1.416423e+002	0.000000e+00	0	0	0.365	0.365
2	CH4	1.571	20944	10486	404.972	Linear	0.000000e+00	0.000000e+00	5.171738e+001	0.000000e+00	0	0	43.027	43.027
3	CO2	1.996	2122914	1015362	532.794	Linear	0.000000e+00	0.000000e+00	3.984494e+003	0.000000e+00	0	0	56.608	56.608
4	Ethylene	0.000	0	0	0.000	Linear	0.000000e+00	0.000000e+00	0.000000e+00	0.000000e+00	0	0	0.000	0.000
5	Acetylene	0.000	0	0	0.000	Linear	0.000000e+00	0.000000e+00	0.000000e+00	0.000000e+00	0	0	0.000	0.000
6	Ethane	0.000	0	0	0.000	Linear	0.000000e+00	0.000000e+00	0.000000e+00	0.000000e+00	0	0	0.000	0.000

[Compound Results(Ch2)]
# of IDs	5
ID#	Name	R.Time	Area	Height	Conc.	Curve	3rd	2nd	1st	Constant	Area Ratio	Height Ratio	Conc. %	Norm Conc.
1	Hydrogen	0.000	0	0	0.000	Linear	0.000000e+00	0.000000e+00	0.000000e+00	0.000000e+00	0	0	0.000	0.000
2	Oxygen	0.000	0	0	0.000	Linear	0.000000e+00	0.000000e+00	0.000000e+00	0.000000e+00	0	0	0.000	0.000
3	Nitrogen	0.000	0	0	0.000	Linear	0.000000e+00	0.000000e+00	0.000000e+00	0.000000e+00	0	0	0.000	0.000
4	Methane	0.000	0	0	0.000	Linear	0.000000e+00	0.000000e+00	0.000000e+00	0.000000e+00	0	0	0.000	0.000
5	Carbon Monoxide	0.000	0	0	0.000	Linear	0.000000e+00	0.000000e+00	0.000000e+00	0.000000e+00	0	0	0.000	0.000

[Compound Results(Ch3)]
# of IDs	2
ID#	Name	R.Time	Area	Height	Conc.	Curve	3rd	2nd	1st	Constant	Area Ratio	Height Ratio	Conc. %	Norm Conc.
1	N2O	2.880	58368	15066	1.491	Linear	0.000000e+00	0.000000e+00	3.915173e+004	0.000000e+00	0	0	100.000	100.000
2	SF6	3.283	21332	649	0.000	Linear	0.000000e+00	0.000000e+00	0.000000e+00	0.000000e+00	0	0	0.000	0.000

[Group Results(Ch1)]
# of Groups	0

[Group Results(Ch2)]
# of Groups	0

[Group Results(Ch3)]
# of Groups	0

[Chromatogram (Ch1)]
Interval(msec)	220
# of Points	1091
Start Time(min)	0.002
End Time(min)	3.998
R.Time (min)	Intensity
0.00167	7
0.00533	5
0.00900	3
0.01267	3
0.01633	3
0.02000	2
0.02367	4
0.02733	7
0.03100	11
0.03467	14
0.03833	12
0.04200	9
0.04567	2
0.04933	-4
0.05300	-5
0.05667	-3
0.06033	2
0.06400	8
0.06767	15
0.07133	21
0.07500	30
0.07867	40
0.08233	50
0.08600	56
0.08967	56
0.09333	48
0.09700	38
0.10067	30
0.10433	27
0.10800	28
0.11167	35
0.11533	45
0.11900	54
0.12267	60
0.12633	66
0.13000	72
0.13367	76
0.13733	76
0.14100	74
0.14467	73
0.14833	71
0.15200	68
0.15567	74
0.15933	82
0.16300	86
0.16667	88
0.17033	84
0.17400	79
0.17767	70
0.18133	56
0.18500	47
0.18867	42
0.19233	43
0.19600	49
0.19967	58
0.20333	61
0.20700	55
0.21067	49
0.21433	43
0.21800	39
0.22167	37
0.22533	34
0.22900	30
0.23267	22
0.23633	17
0.24000	14
0.24367	12
0.24733	10
0.25100	10
0.25467	7
0.25833	3
0.26200	2
0.26567	8
0.26933	17
0.27300	25
0.27667	27
0.28033	23
0.28400	14
0.28767	0
0.29133	-7
0.29500	-6
0.29867	-2
0.30233	2
0.30600	4
0.30967	8
0.31333	11
0.31700	12
0.32067	11
0.32433	6
0.32800	-1
0.33167	-8
0.33533	-13
0.33900	-15
0.34267	-15
0.34633	-14
0.35000	-14
0.35367	-14
0.35733	-12
0.36100	-11
0.36467	-11
0.36833	-9
0.37200	-7
0.37567	-5
0.37933	-1
0.38300	3
0.38667	6
0.39033	5
0.39400	3
0.39767	-1
0.40133	-2
0.40500	-1
0.40867	1
0.41233	2
0.41600	2
0.41967	6
0.42333	10
0.42700	14
0.43067	15
0.43433	13
0.43800	8
0.44167	2
0.44533	-3
0.44900	-8
0.45267	-8
0.45633	-5
0.46000	-2
0.46367	-3
0.46733	-6
0.47100	-10
0.47467	-13
0.47833	-14
0.48200	-19
0.48567	-23
0.48933	-21
0.49300	-14
0.49667	-9
0.50033	-6
0.50400	-2
0.50767	-1
0.51133	-1
0.51500	-1
0.51867	0
0.52233	1
0.52600	4
0.52967	9
0.53333	11
0.53700	11
0.54067	14
0.54433	17
0.54800	16
0.55167	9
0.55533	-2
0.55900	-13
0.56267	-21
0.56633	-26
0.57000	-27
0.57367	-23
0.57733	-13
0.58100	-1
0.58467	11
0.58833	16
0.59200	19
0.59567	25
0.59933	25
0.60300	21
0.60667	15
0.61033	4
0.61400	-7
0.61767	-13
0.62133	-17
0.62500	-16
0.62867	-9
0.63233	-4
0.63600	-4
0.63967	-4
0.64333	-3
0.64700	0
0.65067	7
0.65433	15
0.65800	15
0.66167	7
0.66533	-1
0.66900	-8
0.67267	-10
0.67633	-7
0.68000	-3
0.68367	-3
0.68733	-2
0.69100	2
0.69467	2
0.69833	-1
0.70200	-2
0.70567	-6
0.70933	-9
0.71300	-5
0.71667	4
0.72033	15
0.72400	23
0.72767	25
0.73133	27
0.73500	30
0.73867	31
0.74233	29
0.74600	28
0.74967	27
0.75333	25
0.75700	22
0.76067	23
0.76433	24
0.76800	23
0.77167	25
0.77533	28
0.77900	30
0.78267	32
0.78633	32
0.79000	31
0.79367	33
0.79733	31
0.80100	32
0.80467	36
0.80833	41
0.81200	44
0.81567	44
0.81933	40
0.82300	32
0.82667	23
0.83033	19
0.83400	16
0.83767	15
0.84133	13
0.84500	10
0.84867	7
0.85233	8
0.85600	10
0.85967	12
0.86333	15
0.86700	21
0.87067	27
0.87433	34
0.87800	37
0.88167	33
0.88533	24
0.88900	19
0.89267	20
0.89633	27
0.90000	33
0.90367	36
0.90733	34
0.91100	31
0.91467	28
0.91833	32
0.92200	36
0.92567	36
0.92933	36
0.93300	36
0.93667	34
0.94033	32
0.94400	28
0.94767	21
0.95133	15
0.95500	15
0.95867	16
0.96233	18
0.96600	22
0.96967	26
0.97333	27
0.97700	27
0.98067	24
0.98433	21
0.98800	17
0.99167	12
0.99533	12
0.99900	14
1.00267	18
1.00633	20
1.01000	23
1.01367	29
1.01733	38
1.02100	50
1.02467	58
1.02833	54
1.03200	44
1.03567	36
1.03933	31
1.04300	26
1.04667	19
1.05033	11
1.05400	3
1.05767	-4
1.06133	-9
1.06500	-8
1.06867	-5
1.07233	-7
1.07600	-15
1.07967	-18
1.08333	-17
1.08700	-15
1.09067	-10
1.09433	-1
1.09800	12
1.10167	25
1.10533	35
1.10900	40
1.11267	37
1.11633	29
1.12000	22
1.12367	20
1.12733	20
1.13100	18
1.13467	13
1.13833	11
1.14200	11
1.14567	17
1.14933	23
1.15300	26
1.15667	24
1.16033	18
1.16400	11
1.16767	6
1.17133	3
1.17500	8
1.17867	18
1.18233	28
1.18600	32
1.18967	32
1.19333	29
1.19700	25
1.20067	22
1.20433	17
1.20800	11
1.21167	11
1.21533	15
1.21900	17
1.22267	15
1.22633	15
1.23000	16
1.23367	17
1.23733	15
1.24100	16
1.24467	18
1.24833	17
1.25200	12
1.25567	9
1.25933	10
1.26300	10
1.26667	7
1.27033	-0
1.27400	-9
1.27767	-15
1.28133	-21
1.28500	-20
1.28867	-18
1.29233	-12
1.29600	-5
1.29967	-2
1.30333	-3
1.30700	-3
1.31067	-2
1.31433	-2
1.31800	-0
1.32167	1
1.32533	4
1.32900	12
1.33267	15
1.33633	12
1.34000	6
1.34367	1
1.34733	-1
1.35100	1
1.35467	3
1.35833	2
1.36200	-2
1.36567	-5
1.36933	-3
1.37300	0
1.37667	2
1.38033	4
1.38400	10
1.38767	18
1.39133	21
1.39500	14
1.39867	5
1.40233	3
1.40600	1
1.40967	-2
1.41333	-5
1.41700	-3
1.42067	3
1.42433	8
1.42800	9
1.43167	6
1.43533	3
1.43900	13
1.44267	56
1.44633	171
1.45000	327
1.45367	408
1.45733	378
1.46100	270
1.46467	121
1.46833	-28
1.47200	-141
1.47567	-192
1.47933	-192
1.48300	-180
1.48667	-177
1.49033	-185
1.49400	-202
1.49767	-223
1.50133	-243
1.50500	-255
1.50867	-256
1.51233	-251
1.51600	-250
1.51967	-255
1.52333	-260
1.52700	-264
1.53067	-267
1.53433	-258
1.53800	-193
1.54167	76
1.54533	828
1.54900	2266
1.55267	4225
1.55633	6280
1.56000	8070
1.56367	9412
1.56733	10194
1.57100	10281
1.57467	9584
1.57833	8224
1.58200	6527
1.58567	4850
1.58933	3424
1.59300	2324
1.59667	1529
1.60033	979
1.60400	611
1.60767	370
1.61133	213
1.61500	112
1.61867	51
1.62233	10
1.62600	-19
1.62967	-40
1.63333	-55
1.63700	-67
1.64067	-75
1.64433	-84
1.64800	-89
1.65167	-89
1.65533	-88
1.65900	-90
1.66267	-87
1.66633	-79
1.67000	-67
1.67367	-56
1.67733	-51
1.68100	-51
1.68467	-53
1.68833	-54
1.69200	-56
1.69567	-54
1.69933	-52
1.70300	-52
1.70667	-60
1.71033	-69
1.71400	-77
1.71767	-81
1.72133	-80
1.72500	-76
1.72867	-73
1.73233	-69
1.73600	-64
1.73967	-60
1.74333	-57
1.74700	-52
1.75067	-48
1.75433	-48
1.75800	-52
1.76167	-55
1.76533	-56
1.76900	-60
1.77267	-64
1.77633	-66
1.78000	-67
1.78367	-70
1.78733	-73
1.79100	-73
1.79467	-72
1.79833	-66
1.80200	-56
1.80567	-42
1.80933	-31
1.81300	-28
1.81667	-31
1.82033	-37
1.82400	-42
1.82767	-45
1.83133	-47
1.83500	-43
1.83867	-39
1.84233	-42
1.84600	-49
1.84967	-51
1.85333	-48
1.85700	-43
1.86067	-40
1.86433	-40
1.86800	-39
1.87167	-33
1.87533	-27
1.87900	-23
1.88267	-18
1.88633	-12
1.89000	-7
1.89367	-1
1.89733	3
1.90100	4
1.90467	1
1.90833	-5
1.91200	-12
1.91567	-23
1.91933	-32
1.92300	-35
1.92667	-35
1.93033	-32
1.93400	-27
1.93767	-20
1.94133	-12
1.94500	-7
1.94867	-8
1.95233	-3
1.95600	98
1.95967	758
1.96333	3995
1.96700	16095
1.97067	50638
1.97433	126796
1.97800	257417
1.98167	434850
1.98533	631023
1.98900	810703
1.99267	945066
1.99633	1015395
2.00000	1013876
2.00367	944494
2.00733	823453
2.01100	675210
2.01467	524547
2.01833	389767
2.02200	279969
2.02567	196452
2.02933	135963
2.03300	93615
2.03667	64623
2.04033	45034
2.04400	31871
2.04767	23021
2.05133	17034
2.05500	12937
2.05867	10089
2.06233	8074
2.06600	6620
2.06967	5546
2.07333	4736
2.07700	4115
2.08067	3621
2.08433	3215
2.08800	2882
2.09167	2606
2.09533	2376
2.09900	2183
2.10267	2015
2.10633	1866
2.11000	1736
2.11367	1622
2.11733	1524
2.12100	1434
2.12467	1349
2.12833	1269
2.13200	1200
2.13567	1142
2.13933	1093
2.14300	1049
2.14667	1004
2.15033	960
2.15400	922
2.15767	890
2.16133	858
2.16500	825
2.16867	794
2.17233	762
2.17600	731
2.17967	698
2.18333	668
2.18700	646
2.19067	631
2.19433	618
2.19800	608
2.20167	599
2.20533	591
2.20900	583
2.21267	569
2.21633	550
2.22000	532
2.22367	514
2.22733	497
2.23100	482
2.23467	466
2.23833	453
2.24200	443
2.24567	440
2.24933	436
2.25300	430
2.25667	425
2.26033	421
2.26400	418
2.26767	417
2.27133	415
2.27500	414
2.27867	413
2.28233	412
2.28600	409
2.28967	406
2.29333	398
2.29700	385
2.30067	373
2.30433	363
2.30800	360
2.31167	359
2.31533	357
2.31900	353
2.32267	345
2.32633	339
2.33000	338
2.33367	340
2.33733	339
2.34100	335
2.34467	329
2.34833	323
2.35200	319
2.35567	318
2.35933	322
2.36300	325
2.36667	326
2.37033	323
2.37400	318
2.37767	305
2.38133	295
2.38500	291
2.38867	291
2.39233	298
2.39600	309
2.39967	315
2.40333	312
2.40700	302
2.41067	293
2.41433	286
2.41800	282
2.42167	282
2.42533	285
2.42900	291
2.43267	293
2.43633	291
2.44000	288
2.44367	288
2.44733	289
2.45100	286
2.45467	282
2.45833	278
2.46200	275
2.46567	274
2.46933	270
2.47300	262
2.47667	256
2.48033	259
2.48400	264
2.48767	268
2.49133	273
2.49500	276
2.49867	273
2.50233	273
2.50600	274
2.50967	275
2.51333	278
2.51700	280
2.52067	279
2.52433	280
2.52800	284
2.53167	282
2.53533	273
2.53900	259
2.54267	245
2.54633	233
2.55000	225
2.55367	223
2.55733	226
2.56100	233
2.56467	240
2.56833	243
2.57200	249
2.57567	255
2.57933	261
2.58300	262
2.58667	263
2.59033	268
2.59400	268
2.59767	264
2.60133	260
2.60500	257
2.60867	258
2.61233	265
2.61600	277
2.61967	287
2.62333	290
2.62700	284
2.63067	275
2.63433	268
2.63800	264
2.64167	262
2.64533	262
2.64900	263
2.65267	266
2.65633	275
2.66000	285
2.66367	289
2.66733	285
2.67100	275
2.67467	268
2.67833	265
2.68200	262
2.68567	258
2.68933	258
2.69300	261
2.69667	264
2.70033	267
2.70400	266
2.70767	260
2.71133	256
2.71500	257
2.71867	261
2.72233	261
2.72600	266
2.72967	276
2.73333	284
2.73700	289
2.74067	294
2.74433	301
2.74800	312
2.75167	315
2.75533	309
2.75900	301
2.76267	290
2.76633	281
2.77000	275
2.77367	271
2.77733	266
2.78100	262
2.78467	260
2.78833	263
2.79200	268
2.79567	273
2.79933	277
2.80300	282
2.80667	288
2.81033	292
2.81400	297
2.81767	301
2.82133	303
2.82500	305
2.82867	308
2.83233	310
2.83600	312
2.83967	308
2.84333	296
2.84700	286
2.85067	284
2.85433	286
2.85800	289
2.86167	294
2.86533	297
2.86900	295
2.87267	289
2.87633	284
2.88000	283
2.88367	286
2.88733	294
2.89100	304
2.89467	314
2.89833	315
2.90200	306
2.90567	293
2.90933	288
2.91300	287
2.91667	286
2.92033	286
2.92400	289
2.92767	291
2.93133	291
2.93500	290
2.93867	292
2.94233	291
2.94600	289
2.94967	284
2.95333	277
2.95700	275
2.96067	276
2.96433	282
2.96800	287
2.97167	289
2.97533	297
2.97900	301
2.98267	299
2.98633	299
2.99000	305
2.99367	315
2.99733	317
3.00100	310
3.00467	300
3.00833	293
3.01200	288
3.01567	282
3.01933	275
3.02300	268
3.02667	261
3.03033	256
3.03400	262
3.03767	272
3.04133	287
3.04500	301
3.04867	307
3.05233	307
3.05600	300
3.05967	286
3.06333	271
3.06700	263
3.07067	262
3.07433	268
3.07800	275
3.08167	284
3.08533	293
3.08900	296
3.09267	293
3.09633	292
3.10000	291
3.10367	291
3.10733	290
3.11100	286
3.11467	278
3.11833	270
3.12200	263
3.12567	257
3.12933	255
3.13300	256
3.13667	264
3.14033	272
3.14400	275
3.14767	275
3.15133	280
3.15500	287
3.15867	297
3.16233	302
3.16600	299
3.16967	291
3.17333	288
3.17700	286
3.18067	284
3.18433	280
3.18800	275
3.19167	267
3.19533	259
3.19900	256
3.20267	260
3.20633	261
3.21000	258
3.21367	259
3.21733	266
3.22100	268
3.22467	263
3.22833	257
3.23200	255
3.23567	257
3.23933	261
3.24300	262
3.24667	262
3.25033	264
3.25400	264
3.25767	265
3.26133	269
3.26500	272
3.26867	275
3.27233	274
3.27600	264
3.27967	252
3.28333	244
3.28700	243
3.29067	249
3.29433	256
3.29800	263
3.30167	266
3.30533	266
3.30900	264
3.31267	261
3.31633	259
3.32000	261
3.32367	263
3.32733	264
3.33100	267
3.33467	270
3.33833	272
3.34200	273
3.34567	268
3.34933	256
3.35300	241
3.35667	230
3.36033	225
3.36400	224
3.36767	225
3.37133	225
3.37500	227
3.37867	232
3.38233	236
3.38600	238
3.38967	236
3.39333	235
3.39700	235
3.40067	238
3.40433	245
3.40800	246
3.41167	242
3.41533	240
3.41900	237
3.42267	228
3.42633	218
3.43000	210
3.43367	208
3.43733	212
3.44100	217
3.44467	222
3.44833	229
3.45200	233
3.45567	233
3.45933	233
3.46300	234
3.46667	237
3.47033	237
3.47400	237
3.47767	237
3.48133	235
3.48500	235
3.48867	236
3.49233	239
3.49600	235
3.49967	229
3.50333	227
3.50700	227
3.51067	227
3.51433	227
3.51800	226
3.52167	225
3.52533	220
3.52900	212
3.53267	210
3.53633	208
3.54000	206
3.54367	208
3.54733	214
3.55100	220
3.55467	222
3.55833	219
3.56200	213
3.56567	210
3.56933	212
3.57300	213
3.57667	211
3.58033	207
3.58400	201
3.58767	194
3.59133	191
3.59500	187
3.59867	182
3.60233	176
3.60600	173
3.60967	175
3.61333	184
3.61700	191
3.62067	197
3.62433	202
3.62800	206
3.63167	209
3.63533	208
3.63900	205
3.64267	200
3.64633	193
3.65000	185
3.65367	176
3.65733	170
3.66100	169
3.66467	172
3.66833	176
3.67200	178
3.67567	177
3.67933	176
3.68300	179
3.68667	180
3.69033	180
3.69400	179
3.69767	180
3.70133	186
3.70500	191
3.70867	187
3.71233	180
3.71600	177
3.71967	182
3.72333	190
3.72700	195
3.73067	194
3.73433	188
3.73800	179
3.74167	171
3.74533	169
3.74900	169
3.75267	170
3.75633	171
3.76000	175
3.76367	184
3.76733	189
3.77100	190
3.77467	190
3.77833	186
3.78200	176
3.78567	168
3.78933	163
3.79300	161
3.79667	160
3.80033	156
3.80400	154
3.80767	152
3.81133	152
3.81500	154
3.81867	152
3.82233	150
3.82600	151
3.82967	152
3.83333	151
3.83700	152
3.84067	156
3.84433	160
3.84800	165
3.85167	170
3.85533	170
3.85900	167
3.86267	162
3.86633	160
3.87000	162
3.87367	161
3.87733	155
3.88100	150
3.88467	151
3.88833	151
3.89200	148
3.89567	141
3.89933	131
3.90300	125
3.90667	123
3.91033	128
3.91400	140
3.91767	148
3.92133	149
3.92500	144
3.92867	138
3.93233	135
3.93600	136
3.93967	133
3.94333	127
3.94700	123
3.95067	120
3.95433	120
3.95800	121
3.96167	119
3.96533	120
3.96900	123
3.97267	125
3.97633	123
3.98000	121
3.98367	123
3.98733	126
3.99100	127
3.99467	127
3.99833	123

[Chromatogram (Ch2)]
Interval(msec)	220
# of Points	1091
Start Time(min)	0.002
End Time(min)	3.998
R.Time (min)	Intensity
0.00167	0
0.00533	1
0.00900	1
0.01267	1
0.01633	1
0.02000	1
0.02367	1
0.02733	2
0.03100	2
0.03467	2
0.03833	3
0.04200	3
0.04567	3
0.04933	3
0.05300	3
0.05667	3
0.06033	3
0.06400	3
0.06767	3
0.07133	3
0.07500	3
0.07867	3
0.08233	3
0.08600	4
0.08967	4
0.09333	5
0.09700	5
0.10067	5
0.10433	5
0.10800	5
0.11167	5
0.11533	4
0.11900	4
0.12267	3
0.12633	3
0.13000	2
0.13367	1
0.13733	1
0.14100	1
0.14467	1
0.14833	1
0.15200	1
0.15567	1
0.15933	1
0.16300	1
0.16667	1
0.17033	1
0.17400	1
0.17767	2
0.18133	2
0.18500	2
0.18867	2
0.19233	3
0.19600	2
0.19967	2
0.20333	2
0.20700	2
0.21067	2
0.21433	2
0.21800	2
0.22167	2
0.22533	3
0.22900	3
0.23267	3
0.23633	4
0.24000	4
0.24367	4
0.24733	5
0.25100	5
0.25467	5
0.25833	5
0.26200	5
0.26567	5
0.26933	5
0.27300	4
0.27667	4
0.28033	3
0.28400	3
0.28767	3
0.29133	3
0.29500	3
0.29867	3
0.30233	3
0.30600	3
0.30967	2
0.31333	2
0.31700	2
0.32067	2
0.32433	2
0.32800	2
0.33167	2
0.33533	2
0.33900	1
0.34267	1
0.34633	-0
0.35000	-1
0.35367	-1
0.35733	-1
0.36100	-1
0.36467	-2
0.36833	-2
0.37200	-2
0.37567	-2
0.37933	-2
0.38300	-1
0.38667	-1
0.39033	-1
0.39400	-0
0.39767	0
0.40133	1
0.40500	1
0.40867	2
0.41233	2
0.41600	2
0.41967	3
0.42333	3
0.42700	3
0.43067	3
0.43433	3
0.43800	2
0.44167	2
0.44533	2
0.44900	1
0.45267	1
0.45633	0
0.46000	-0
0.46367	-0
0.46733	-1
0.47100	-1
0.47467	-1
0.47833	-1
0.48200	-0
0.48567	0
0.48933	0
0.49300	1
0.49667	1
0.50033	1
0.50400	1
0.50767	1
0.51133	1
0.51500	2
0.51867	2
0.52233	2
0.52600	2
0.52967	2
0.53333	2
0.53700	2
0.54067	2
0.54433	2
0.54800	2
0.55167	2
0.55533	2
0.55900	2
0.56267	2
0.56633	2
0.57000	2
0.57367	3
0.57733	3
0.58100	3
0.58467	3
0.58833	3
0.59200	3
0.59567	3
0.59933	3
0.60300	3
0.60667	3
0.61033	2
0.61400	2
0.61767	2
0.62133	2
0.62500	1
0.62867	1
0.63233	0
0.63600	-0
0.63967	-0
0.64333	-0
0.64700	0
0.65067	0
0.65433	1
0.65800	1
0.66167	1
0.66533	2
0.66900	2
0.67267	2
0.67633	3
0.68000	3
0.68367	3
0.68733	3
0.69100	3
0.69467	3
0.69833	2
0.70200	2
0.70567	2
0.70933	1
0.71300	1
0.71667	1
0.72033	0
0.72400	0
0.72767	0
0.73133	0
0.73500	1
0.73867	1
0.74233	1
0.74600	0
0.74967	0
0.75333	-0
0.75700	-0
0.76067	-1
0.76433	-1
0.76800	-1
0.77167	-0
0.77533	-0
0.77900	-0
0.78267	0
0.78633	0
0.79000	1
0.79367	1
0.79733	1
0.80100	1
0.80467	2
0.80833	2
0.81200	2
0.81567	2
0.81933	2
0.82300	3
0.82667	3
0.83033	3
0.83400	3
0.83767	3
0.84133	4
0.84500	4
0.84867	4
0.85233	4
0.85600	4
0.85967	4
0.86333	4
0.86700	4
0.87067	4
0.87433	3
0.87800	3
0.88167	3
0.88533	3
0.88900	3
0.89267	3
0.89633	3
0.90000	3
0.90367	3
0.90733	3
0.91100	3
0.91467	2
0.91833	2
0.92200	2
0.92567	2
0.92933	2
0.93300	1
0.93667	1
0.94033	1
0.94400	0
0.94767	-0
0.95133	-1
0.95500	-1
0.95867	-1
0.96233	-2
0.96600	-2
0.96967	-2
0.97333	-3
0.97700	-3
0.98067	-3
0.98433	-2
0.98800	-2
0.99167	-2
0.99533	-2
0.99900	-2
1.00267	-2
1.00633	-2
1.01000	-3
1.01367	-3
1.01733	-2
1.02100	-2
1.02467	-2
1.02833	-1
1.03200	-1
1.03567	-1
1.03933	-1
1.04300	-0
1.04667	-0
1.05033	0
1.05400	0
1.05767	0
1.06133	-0
1.06500	-0
1.06867	-0
1.07233	-0
1.07600	-0
1.07967	-0
1.08333	-0
1.08700	-1
1.09067	-1
1.09433	-1
1.09800	-0
1.10167	-0
1.10533	0
1.10900	0
1.11267	0
1.11633	0
1.12000	0
1.12367	1
1.12733	1
1.13100	1
1.13467	1
1.13833	1
1.14200	1
1.14567	1
1.14933	0
1.15300	0
1.15667	-0
1.16033	-0
1.16400	-1
1.16767	-1
1.17133	-1
1.17500	-2
1.17867	-2
1.18233	-2
1.18600	-3
1.18967	-3
1.19333	-3
1.19700	-2
1.20067	-2
1.20433	-1
1.20800	-1
1.21167	-0
1.21533	1
1.21900	1
1.22267	2
1.22633	2
1.23000	2
1.23367	2
1.23733	2
1.24100	2
1.24467	2
1.24833	2
1.25200	2
1.25567	2
1.25933	2
1.26300	3
1.26667	3
1.27033	3
1.27400	3
1.27767	3
1.28133	3
1.28500	3
1.28867	3
1.29233	3
1.29600	3
1.29967	2
1.30333	2
1.30700	1
1.31067	1
1.31433	1
1.31800	0
1.32167	-0
1.32533	-0
1.32900	-1
1.33267	-1
1.33633	-2
1.34000	-2
1.34367	-2
1.34733	-2
1.35100	-2
1.35467	-3
1.35833	-3
1.36200	-3
1.36567	-3
1.36933	-3
1.37300	-3
1.37667	-3
1.38033	-3
1.38400	-3
1.38767	-2
1.39133	-2
1.39500	-2
1.39867	-2
1.40233	-1
1.40600	-1
1.40967	-1
1.41333	-0
1.41700	-0
1.42067	-0
1.42433	-0
1.42800	-0
1.43167	-0
1.43533	-1
1.43900	-1
1.44267	-1
1.44633	-1
1.45000	-2
1.45367	-2
1.45733	-2
1.46100	-2
1.46467	-2
1.46833	-2
1.47200	-2
1.47567	-2
1.47933	-2
1.48300	-1
1.48667	-1
1.49033	-1
1.49400	-0
1.49767	-0
1.50133	-0
1.50500	-0
1.50867	0
1.51233	1
1.51600	1
1.51967	1
1.52333	1
1.52700	0
1.53067	0
1.53433	-0
1.53800	-0
1.54167	-0
1.54533	-1
1.54900	-1
1.55267	-1
1.55633	-1
1.56000	-1
1.56367	-1
1.56733	-1
1.57100	-1
1.57467	-1
1.57833	-1
1.58200	-1
1.58567	-2
1.58933	-2
1.59300	-2
1.59667	-2
1.60033	-3
1.60400	-3
1.60767	-4
1.61133	-6
1.61500	-7
1.61867	-9
1.62233	-12
1.62600	-15
1.62967	-18
1.63333	-22
1.63700	-25
1.64067	-29
1.64433	-32
1.64800	-36
1.65167	-39
1.65533	-43
1.65900	-46
1.66267	-50
1.66633	-54
1.67000	-59
1.67367	-64
1.67733	-69
1.68100	-74
1.68467	-79
1.68833	-84
1.69200	-88
1.69567	-92
1.69933	-95
1.70300	-97
1.70667	-99
1.71033	-100
1.71400	-101
1.71767	-102
1.72133	-103
1.72500	-103
1.72867	-104
1.73233	-104
1.73600	-105
1.73967	-105
1.74333	-104
1.74700	-104
1.75067	-103
1.75433	-103
1.75800	-103
1.76167	-103
1.76533	-104
1.76900	-105
1.77267	-106
1.77633	-108
1.78000	-109
1.78367	-111
1.78733	-111
1.79100	-112
1.79467	-112
1.79833	-112
1.80200	-112
1.80567	-112
1.80933	-113
1.81300	-113
1.81667	-113
1.82033	-113
1.82400	-113
1.82767	-113
1.83133	-112
1.83500	-112
1.83867	-112
1.84233	-112
1.84600	-111
1.84967	-111
1.85333	-111
1.85700	-111
1.86067	-111
1.86433	-111
1.86800	-111
1.87167	-111
1.87533	-110
1.87900	-109
1.88267	-109
1.88633	-109
1.89000	-109
1.89367	-109
1.89733	-110
1.90100	-111
1.90467	-111
1.90833	-112
1.91200	-112
1.91567	-111
1.91933	-111
1.92300	-109
1.92667	-108
1.93033	-107
1.93400	-106
1.93767	-106
1.94133	-105
1.94500	-105
1.94867	-105
1.95233	-105
1.95600	-106
1.95967	-106
1.96333	-107
1.96700	-107
1.97067	-107
1.97433	-107
1.97800	-106
1.98167	-105
1.98533	-105
1.98900	-104
1.99267	-103
1.99633	-103
2.00000	-102
2.00367	-102
2.00733	-102
2.01100	-102
2.01467	-102
2.01833	-103
2.02200	-103
2.02567	-104
2.02933	-104
2.03300	-105
2.03667	-104
2.04033	-103
2.04400	-102
2.04767	-101
2.05133	-100
2.05500	-99
2.05867	-99
2.06233	-99
2.06600	-99
2.06967	-99
2.07333	-99
2.07700	-99
2.08067	-99
2.08433	-98
2.08800	-98
2.09167	-98
2.09533	-98
2.09900	-98
2.10267	-98
2.10633	-97
2.11000	-97
2.11367	-98
2.11733	-97
2.12100	-97
2.12467	-97
2.12833	-96
2.13200	-96
2.13567	-96
2.13933	-95
2.14300	-95
2.14667	-95
2.15033	-94
2.15400	-94
2.15767	-94
2.16133	-93
2.16500	-93
2.16867	-93
2.17233	-92
2.17600	-92
2.17967	-92
2.18333	-92
2.18700	-91
2.19067	-91
2.19433	-90
2.19800	-90
2.20167	-89
2.20533	-89
2.20900	-89
2.21267	-89
2.21633	-89
2.22000	-88
2.22367	-88
2.22733	-88
2.23100	-87
2.23467	-87
2.23833	-87
2.24200	-86
2.24567	-86
2.24933	-86
2.25300	-86
2.25667	-86
2.26033	-86
2.26400	-85
2.26767	-85
2.27133	-84
2.27500	-84
2.27867	-83
2.28233	-83
2.28600	-83
2.28967	-82
2.29333	-82
2.29700	-82
2.30067	-82
2.30433	-81
2.30800	-81
2.31167	-80
2.31533	-80
2.31900	-79
2.32267	-78
2.32633	-77
2.33000	-75
2.33367	-74
2.33733	-73
2.34100	-73
2.34467	-72
2.34833	-72
2.35200	-71
2.35567	-70
2.35933	-69
2.36300	-69
2.36667	-68
2.37033	-66
2.37400	-64
2.37767	-61
2.38133	-58
2.38500	-54
2.38867	-50
2.39233	-46
2.39600	-42
2.39967	-37
2.40333	-33
2.40700	-28
2.41067	-24
2.41433	-20
2.41800	-17
2.42167	-14
2.42533	-12
2.42900	-10
2.43267	-9
2.43633	-8
2.44000	-7
2.44367	-6
2.44733	-5
2.45100	-4
2.45467	-4
2.45833	-3
2.46200	-2
2.46567	-1
2.46933	-0
2.47300	1
2.47667	2
2.48033	2
2.48400	3
2.48767	4
2.49133	4
2.49500	5
2.49867	6
2.50233	7
2.50600	8
2.50967	8
2.51333	9
2.51700	10
2.52067	11
2.52433	11
2.52800	12
2.53167	13
2.53533	14
2.53900	15
2.54267	15
2.54633	16
2.55000	16
2.55367	15
2.55733	15
2.56100	14
2.56467	14
2.56833	14
2.57200	14
2.57567	14
2.57933	14
2.58300	15
2.58667	15
2.59033	16
2.59400	16
2.59767	17
2.60133	17
2.60500	17
2.60867	17
2.61233	18
2.61600	18
2.61967	19
2.62333	20
2.62700	20
2.63067	20
2.63433	20
2.63800	19
2.64167	19
2.64533	19
2.64900	19
2.65267	19
2.65633	19
2.66000	20
2.66367	21
2.66733	22
2.67100	23
2.67467	23
2.67833	24
2.68200	24
2.68567	24
2.68933	24
2.69300	24
2.69667	24
2.70033	24
2.70400	24
2.70767	24
2.71133	24
2.71500	24
2.71867	25
2.72233	25
2.72600	26
2.72967	26
2.73333	26
2.73700	26
2.74067	26
2.74433	26
2.74800	26
2.75167	25
2.75533	25
2.75900	25
2.76267	25
2.76633	26
2.77000	26
2.77367	26
2.77733	26
2.78100	26
2.78467	27
2.78833	27
2.79200	27
2.79567	27
2.79933	28
2.80300	28
2.80667	28
2.81033	28
2.81400	29
2.81767	29
2.82133	29
2.82500	28
2.82867	28
2.83233	28
2.83600	27
2.83967	26
2.84333	24
2.84700	20
2.85067	15
2.85433	7
2.85800	-4
2.86167	-19
2.86533	-39
2.86900	-64
2.87267	-95
2.87633	-131
2.88000	-173
2.88367	-221
2.88733	-273
2.89100	-331
2.89467	-393
2.89833	-460
2.90200	-531
2.90567	-606
2.90933	-683
2.91300	-764
2.91667	-847
2.92033	-934
2.92400	-1022
2.92767	-1112
2.93133	-1203
2.93500	-1297
2.93867	-1391
2.94233	-1476
2.94600	-1539
2.94967	-1570
2.95333	-1563
2.95700	-1521
2.96067	-1450
2.96433	-1358
2.96800	-1252
2.97167	-1139
2.97533	-1025
2.97900	-914
2.98267	-808
2.98633	-710
2.99000	-620
2.99367	-539
2.99733	-467
3.00100	-403
3.00467	-347
3.00833	-298
3.01200	-255
3.01567	-217
3.01933	-185
3.02300	-157
3.02667	-133
3.03033	-112
3.03400	-94
3.03767	-78
3.04133	-65
3.04500	-54
3.04867	-44
3.05233	-36
3.05600	-29
3.05967	-24
3.06333	-19
3.06700	-14
3.07067	-11
3.07433	-7
3.07800	-5
3.08167	-2
3.08533	-0
3.08900	2
3.09267	3
3.09633	5
3.10000	6
3.10367	7
3.10733	8
3.11100	9
3.11467	9
3.11833	9
3.12200	10
3.12567	10
3.12933	10
3.13300	10
3.13667	10
3.14033	11
3.14400	11
3.14767	12
3.15133	12
3.15500	13
3.15867	14
3.16233	15
3.16600	15
3.16967	16
3.17333	16
3.17700	16
3.18067	16
3.18433	17
3.18800	17
3.19167	17
3.19533	17
3.19900	18
3.20267	18
3.20633	18
3.21000	18
3.21367	19
3.21733	19
3.22100	19
3.22467	20
3.22833	20
3.23200	20
3.23567	21
3.23933	21
3.24300	21
3.24667	21
3.25033	22
3.25400	22
3.25767	22
3.26133	22
3.26500	22
3.26867	22
3.27233	22
3.27600	22
3.27967	22
3.28333	22
3.28700	22
3.29067	22
3.29433	22
3.29800	22
3.30167	22
3.30533	23
3.30900	23
3.31267	23
3.31633	23
3.32000	23
3.32367	23
3.32733	23
3.33100	23
3.33467	23
3.33833	23
3.34200	23
3.34567	24
3.34933	24
3.35300	24
3.35667	24
3.36033	24
3.36400	25
3.36767	25
3.37133	25
3.37500	25
3.37867	26
3.38233	26
3.38600	27
3.38967	27
3.39333	27
3.39700	28
3.40067	28
3.40433	28
3.40800	28
3.41167	29
3.41533	29
3.41900	29
3.42267	29
3.42633	29
3.43000	30
3.43367	30
3.43733	30
3.44100	30
3.44467	30
3.44833	30
3.45200	29
3.45567	29
3.45933	29
3.46300	29
3.46667	29
3.47033	29
3.47400	29
3.47767	28
3.48133	28
3.48500	28
3.48867	28
3.49233	28
3.49600	28
3.49967	28
3.50333	28
3.50700	28
3.51067	27
3.51433	27
3.51800	27
3.52167	27
3.52533	27
3.52900	27
3.53267	27
3.53633	27
3.54000	27
3.54367	27
3.54733	27
3.55100	27
3.55467	27
3.55833	27
3.56200	27
3.56567	27
3.56933	27
3.57300	27
3.57667	27
3.58033	28
3.58400	28
3.58767	28
3.59133	28
3.59500	28
3.59867	29
3.60233	29
3.60600	29
3.60967	29
3.61333	29
3.61700	29
3.62067	29
3.62433	28
3.62800	28
3.63167	28
3.63533	28
3.63900	27
3.64267	27
3.64633	27
3.65000	26
3.65367	26
3.65733	26
3.66100	26
3.66467	26
3.66833	26
3.67200	26
3.67567	26
3.67933	26
3.68300	26
3.68667	26
3.69033	26
3.69400	25
3.69767	25
3.70133	25
3.70500	25
3.70867	25
3.71233	24
3.71600	24
3.71967	24
3.72333	24
3.72700	25
3.73067	25
3.73433	25
3.73800	25
3.74167	25
3.74533	25
3.74900	26
3.75267	26
3.75633	26
3.76000	26
3.76367	26
3.76733	26
3.77100	26
3.77467	26
3.77833	26
3.78200	26
3.78567	26
3.78933	26
3.79300	26
3.79667	26
3.80033	26
3.80400	26
3.80767	26
3.81133	26
3.81500	26
3.81867	26
3.82233	26
3.82600	26
3.82967	27
3.83333	27
3.83700	27
3.84067	27
3.84433	26
3.84800	26
3.85167	26
3.85533	26
3.85900	26
3.86267	26
3.86633	26
3.87000	26
3.87367	25
3.87733	25
3.88100	25
3.88467	25
3.88833	25
3.89200	25
3.89567	25
3.89933	25
3.90300	25
3.90667	25
3.91033	25
3.91400	25
3.91767	25
3.92133	25
3.92500	25
3.92867	25
3.93233	25
3.93600	25
3.93967	25
3.94333	25
3.94700	25
3.95067	25
3.95433	25
3.95800	25
3.96167	25
3.96533	26
3.96900	26
3.97267	26
3.97633	26
3.98000	26
3.98367	26
3.98733	26
3.99100	26
3.99467	26
3.99833	26

[Chromatogram (Ch3)]
Interval(msec)	220
# of Points	1091
Start Time(min)	0.002
End Time(min)	3.998
R.Time (min)	Intensity
0.00167	1
0.00533	3
0.00900	4
0.01267	1
0.01633	-1
0.02000	-1
0.02367	-0
0.02733	0
0.03100	1
0.03467	1
0.03833	1
0.04200	0
0.04567	-0
0.04933	0
0.05300	3
0.05667	4
0.06033	3
0.06400	4
0.06767	2
0.07133	2
0.07500	2
0.07867	2
0.08233	2
0.08600	4
0.08967	5
0.09333	4
0.09700	4
0.10067	4
0.10433	4
0.10800	3
0.11167	3
0.11533	4
0.11900	3
0.12267	2
0.12633	3
0.13000	4
0.13367	4
0.13733	4
0.14100	5
0.14467	5
0.14833	5
0.15200	7
0.15567	10
0.15933	10
0.16300	9
0.16667	6
0.17033	5
0.17400	6
0.17767	5
0.18133	3
0.18500	3
0.18867	4
0.19233	2
0.19600	1
0.19967	2
0.20333	2
0.20700	1
0.21067	1
0.21433	1
0.21800	0
0.22167	-1
0.22533	-2
0.22900	-3
0.23267	-3
0.23633	-3
0.24000	-1
0.24367	0
0.24733	1
0.25100	0
0.25467	-1
0.25833	-1
0.26200	-1
0.26567	1
0.26933	1
0.27300	-1
0.27667	-1
0.28033	-2
0.28400	-1
0.28767	-1
0.29133	0
0.29500	1
0.29867	1
0.30233	2
0.30600	3
0.30967	3
0.31333	3
0.31700	3
0.32067	5
0.32433	7
0.32800	7
0.33167	9
0.33533	9
0.33900	10
0.34267	10
0.34633	8
0.35000	5
0.35367	3
0.35733	3
0.36100	4
0.36467	5
0.36833	5
0.37200	4
0.37567	4
0.37933	4
0.38300	4
0.38667	3
0.39033	2
0.39400	5
0.39767	7
0.40133	8
0.40500	10
0.40867	10
0.41233	10
0.41600	8
0.41967	7
0.42333	6
0.42700	6
0.43067	7
0.43433	7
0.43800	6
0.44167	3
0.44533	4
0.44900	5
0.45267	7
0.45633	7
0.46000	4
0.46367	6
0.46733	9
0.47100	10
0.47467	8
0.47833	8
0.48200	7
0.48567	7
0.48933	8
0.49300	6
0.49667	5
0.50033	4
0.50400	3
0.50767	3
0.51133	2
0.51500	4
0.51867	5
0.52233	7
0.52600	9
0.52967	10
0.53333	13
0.53700	13
0.54067	12
0.54433	9
0.54800	7
0.55167	7
0.55533	7
0.55900	9
0.56267	12
0.56633	13
0.57000	14
0.57367	14
0.57733	14
0.58100	11
0.58467	9
0.58833	6
0.59200	3
0.59567	3
0.59933	5
0.60300	6
0.60667	7
0.61033	8
0.61400	8
0.61767	8
0.62133	8
0.62500	10
0.62867	11
0.63233	9
0.63600	8
0.63967	9
0.64333	10
0.64700	11
0.65067	14
0.65433	15
0.65800	14
0.66167	11
0.66533	10
0.66900	10
0.67267	12
0.67633	13
0.68000	12
0.68367	12
0.68733	12
0.69100	13
0.69467	14
0.69833	15
0.70200	15
0.70567	13
0.70933	11
0.71300	10
0.71667	8
0.72033	9
0.72400	12
0.72767	15
0.73133	15
0.73500	13
0.73867	10
0.74233	8
0.74600	9
0.74967	12
0.75333	13
0.75700	12
0.76067	11
0.76433	12
0.76800	13
0.77167	13
0.77533	11
0.77900	8
0.78267	10
0.78633	10
0.79000	11
0.79367	11
0.79733	12
0.80100	14
0.80467	13
0.80833	13
0.81200	12
0.81567	12
0.81933	12
0.82300	14
0.82667	16
0.83033	16
0.83400	16
0.83767	17
0.84133	19
0.84500	18
0.84867	17
0.85233	17
0.85600	16
0.85967	15
0.86333	15
0.86700	15
0.87067	13
0.87433	13
0.87800	14
0.88167	16
0.88533	16
0.88900	17
0.89267	18
0.89633	20
0.90000	21
0.90367	21
0.90733	20
0.91100	17
0.91467	15
0.91833	13
0.92200	14
0.92567	15
0.92933	16
0.93300	18
0.93667	18
0.94033	20
0.94400	22
0.94767	24
0.95133	25
0.95500	24
0.95867	21
0.96233	20
0.96600	20
0.96967	20
0.97333	21
0.97700	21
0.98067	20
0.98433	18
0.98800	17
0.99167	16
0.99533	16
0.99900	16
1.00267	15
1.00633	16
1.01000	16
1.01367	16
1.01733	15
1.02100	14
1.02467	15
1.02833	17
1.03200	18
1.03567	19
1.03933	21
1.04300	20
1.04667	20
1.05033	20
1.05400	19
1.05767	19
1.06133	19
1.06500	18
1.06867	17
1.07233	16
1.07600	17
1.07967	18
1.08333	18
1.08700	19
1.09067	20
1.09433	20
1.09800	20
1.10167	20
1.10533	20
1.10900	22
1.11267	25
1.11633	26
1.12000	24
1.12367	24
1.12733	23
1.13100	23
1.13467	24
1.13833	24
1.14200	26
1.14567	26
1.14933	26
1.15300	24
1.15667	24
1.16033	23
1.16400	22
1.16767	21
1.17133	19
1.17500	19
1.17867	22
1.18233	25
1.18600	27
1.18967	27
1.19333	26
1.19700	25
1.20067	23
1.20433	22
1.20800	22
1.21167	21
1.21533	23
1.21900	24
1.22267	23
1.22633	24
1.23000	25
1.23367	26
1.23733	28
1.24100	29
1.24467	29
1.24833	27
1.25200	27
1.25567	28
1.25933	28
1.26300	26
1.26667	25
1.27033	23
1.27400	22
1.27767	22
1.28133	22
1.28500	22
1.28867	23
1.29233	24
1.29600	24
1.29967	24
1.30333	24
1.30700	24
1.31067	24
1.31433	25
1.31800	25
1.32167	26
1.32533	26
1.32900	27
1.33267	29
1.33633	30
1.34000	31
1.34367	30
1.34733	29
1.35100	28
1.35467	29
1.35833	30
1.36200	30
1.36567	30
1.36933	29
1.37300	29
1.37667	28
1.38033	27
1.38400	28
1.38767	30
1.39133	30
1.39500	32
1.39867	34
1.40233	33
1.40600	31
1.40967	30
1.41333	29
1.41700	29
1.42067	29
1.42433	30
1.42800	30
1.43167	31
1.43533	31
1.43900	32
1.44267	33
1.44633	32
1.45000	33
1.45367	32
1.45733	30
1.46100	29
1.46467	30
1.46833	29
1.47200	28
1.47567	27
1.47933	28
1.48300	30
1.48667	33
1.49033	34
1.49400	35
1.49767	35
1.50133	35
1.50500	35
1.50867	35
1.51233	31
1.51600	29
1.51967	29
1.52333	29
1.52700	29
1.53067	31
1.53433	33
1.53800	33
1.54167	32
1.54533	33
1.54900	33
1.55267	31
1.55633	31
1.56000	33
1.56367	33
1.56733	32
1.57100	32
1.57467	33
1.57833	32
1.58200	32
1.58567	31
1.58933	30
1.59300	30
1.59667	33
1.60033	35
1.60400	36
1.60767	38
1.61133	38
1.61500	37
1.61867	37
1.62233	37
1.62600	38
1.62967	39
1.63333	39
1.63700	39
1.64067	41
1.64433	43
1.64800	44
1.65167	45
1.65533	47
1.65900	47
1.66267	48
1.66633	47
1.67000	48
1.67367	50
1.67733	51
1.68100	53
1.68467	53
1.68833	54
1.69200	56
1.69567	57
1.69933	57
1.70300	57
1.70667	57
1.71033	57
1.71400	57
1.71767	58
1.72133	57
1.72500	58
1.72867	61
1.73233	62
1.73600	62
1.73967	61
1.74333	60
1.74700	60
1.75067	59
1.75433	59
1.75800	60
1.76167	61
1.76533	62
1.76900	62
1.77267	63
1.77633	63
1.78000	63
1.78367	64
1.78733	66
1.79100	67
1.79467	65
1.79833	65
1.80200	66
1.80567	66
1.80933	67
1.81300	67
1.81667	69
1.82033	69
1.82400	70
1.82767	70
1.83133	71
1.83500	73
1.83867	72
1.84233	73
1.84600	74
1.84967	75
1.85333	76
1.85700	76
1.86067	77
1.86433	77
1.86800	78
1.87167	79
1.87533	81
1.87900	84
1.88267	85
1.88633	86
1.89000	87
1.89367	85
1.89733	82
1.90100	82
1.90467	84
1.90833	88
1.91200	93
1.91567	96
1.91933	96
1.92300	96
1.92667	97
1.93033	97
1.93400	97
1.93767	99
1.94133	99
1.94500	99
1.94867	101
1.95233	103
1.95600	104
1.95967	105
1.96333	107
1.96700	108
1.97067	107
1.97433	108
1.97800	110
1.98167	111
1.98533	113
1.98900	115
1.99267	115
1.99633	116
2.00000	118
2.00367	119
2.00733	121
2.01100	123
2.01467	124
2.01833	125
2.02200	126
2.02567	128
2.02933	129
2.03300	129
2.03667	130
2.04033	132
2.04400	134
2.04767	135
2.05133	137
2.05500	138
2.05867	139
2.06233	141
2.06600	142
2.06967	143
2.07333	143
2.07700	143
2.08067	143
2.08433	145
2.08800	148
2.09167	149
2.09533	147
2.09900	147
2.10267	148
2.10633	149
2.11000	152
2.11367	154
2.11733	155
2.12100	158
2.12467	162
2.12833	165
2.13200	167
2.13567	169
2.13933	171
2.14300	173
2.14667	175
2.15033	177
2.15400	178
2.15767	179
2.16133	178
2.16500	177
2.16867	177
2.17233	178
2.17600	181
2.17967	182
2.18333	185
2.18700	185
2.19067	186
2.19433	185
2.19800	185
2.20167	187
2.20533	189
2.20900	191
2.21267	194
2.21633	197
2.22000	197
2.22367	199
2.22733	200
2.23100	202
2.23467	203
2.23833	204
2.24200	205
2.24567	207
2.24933	208
2.25300	210
2.25667	212
2.26033	213
2.26400	214
2.26767	216
2.27133	217
2.27500	216
2.27867	217
2.28233	217
2.28600	218
2.28967	219
2.29333	219
2.29700	221
2.30067	222
2.30433	223
2.30800	224
2.31167	225
2.31533	228
2.31900	230
2.32267	230
2.32633	229
2.33000	231
2.33367	232
2.33733	232
2.34100	232
2.34467	233
2.34833	233
2.35200	234
2.35567	234
2.35933	235
2.36300	237
2.36667	239
2.37033	239
2.37400	238
2.37767	237
2.38133	236
2.38500	235
2.38867	234
2.39233	236
2.39600	239
2.39967	243
2.40333	246
2.40700	247
2.41067	248
2.41433	248
2.41800	249
2.42167	251
2.42533	251
2.42900	252
2.43267	251
2.43633	250
2.44000	252
2.44367	311
2.44733	466
2.45100	634
2.45467	773
2.45833	847
2.46200	843
2.46567	796
2.46933	740
2.47300	696
2.47667	669
2.48033	641
2.48400	601
2.48767	551
2.49133	498
2.49500	450
2.49867	410
2.50233	380
2.50600	362
2.50967	354
2.51333	361
2.51700	380
2.52067	404
2.52433	425
2.52800	436
2.53167	434
2.53533	418
2.53900	392
2.54267	360
2.54633	324
2.55000	290
2.55367	262
2.55733	239
2.56100	222
2.56467	207
2.56833	198
2.57200	194
2.57567	189
2.57933	186
2.58300	185
2.58667	187
2.59033	188
2.59400	188
2.59767	190
2.60133	194
2.60500	197
2.60867	198
2.61233	196
2.61600	191
2.61967	184
2.62333	177
2.62700	170
2.63067	161
2.63433	156
2.63800	151
2.64167	143
2.64533	135
2.64900	125
2.65267	115
2.65633	105
2.66000	94
2.66367	82
2.66733	70
2.67100	59
2.67467	51
2.67833	44
2.68200	38
2.68567	33
2.68933	28
2.69300	27
2.69667	29
2.70033	32
2.70400	34
2.70767	35
2.71133	36
2.71500	38
2.71867	41
2.72233	43
2.72600	47
2.72967	52
2.73333	55
2.73700	57
2.74067	59
2.74433	62
2.74800	67
2.75167	70
2.75533	71
2.75900	74
2.76267	77
2.76633	79
2.77000	82
2.77367	85
2.77733	88
2.78100	91
2.78467	94
2.78833	97
2.79200	101
2.79567	104
2.79933	108
2.80300	113
2.80667	118
2.81033	126
2.81400	134
2.81767	148
2.82133	176
2.82500	234
2.82867	355
2.83233	591
2.83600	1007
2.83967	1670
2.84333	2626
2.84700	3889
2.85067	5428
2.85433	7169
2.85800	9002
2.86167	10792
2.86533	12396
2.86900	13693
2.87267	14596
2.87633	15073
2.88000	15126
2.88367	14807
2.88733	14196
2.89100	13367
2.89467	12398
2.89833	11357
2.90200	10301
2.90567	9271
2.90933	8292
2.91300	7380
2.91667	6542
2.92033	5779
2.92400	5090
2.92767	4473
2.93133	3922
2.93500	3436
2.93867	3010
2.94233	2636
2.94600	2306
2.94967	2016
2.95333	1762
2.95700	1540
2.96067	1349
2.96433	1184
2.96800	1040
2.97167	913
2.97533	804
2.97900	707
2.98267	624
2.98633	553
2.99000	492
2.99367	439
2.99733	392
3.00100	351
3.00467	317
3.00833	288
3.01200	260
3.01567	216
3.01933	158
3.02300	107
3.02667	84
3.03033	87
3.03400	107
3.03767	134
3.04133	169
3.04500	215
3.04867	264
3.05233	316
3.05600	364
3.05967	409
3.06333	449
3.06700	484
3.07067	518
3.07433	547
3.07800	571
3.08167	590
3.08533	606
3.08900	617
3.09267	625
3.09633	630
3.10000	636
3.10367	645
3.10733	652
3.11100	655
3.11467	658
3.11833	664
3.12200	668
3.12567	672
3.12933	676
3.13300	678
3.13667	682
3.14033	687
3.14400	690
3.14767	694
3.15133	697
3.15500	700
3.15867	700
3.16233	704
3.16600	709
3.16967	712
3.17333	714
3.17700	718
3.18067	721
3.18433	725
3.18800	731
3.19167	738
3.19533	745
3.19900	752
3.20267	758
3.20633	765
3.21000	769
3.21367	775
3.21733	782
3.22100	789
3.22467	794
3.22833	799
3.23200	805
3.23567	809
3.23933	813
3.24300	816
3.24667	820
3.25033	825
3.25400	831
3.25767	837
3.26133	840
3.26500	841
3.26867	844
3.27233	847
3.27600	849
3.27967	850
3.28333	853
3.28700	855
3.29067	854
3.29433	854
3.29800	854
3.30167	854
3.30533	851
3.30900	848
3.31267	846
3.31633	844
3.32000	844
3.32367	843
3.32733	841
3.33100	838
3.33467	836
3.33833	834
3.34200	832
3.34567	829
3.34933	824
3.35300	821
3.35667	818
3.36033	817
3.36400	815
3.36767	812
3.37133	807
3.37500	802
3.37867	799
3.38233	797
3.38600	795
3.38967	791
3.39333	789
3.39700	787
3.40067	785
3.40433	780
3.40800	777
3.41167	778
3.41533	780
3.41900	780
3.42267	779
3.42633	777
3.43000	773
3.43367	769
3.43733	767
3.44100	766
3.44467	763
3.44833	760
3.45200	760
3.45567	759
3.45933	758
3.46300	758
3.46667	758
3.47033	756
3.47400	754
3.47767	752
3.48133	752
3.48500	753
3.48867	751
3.49233	750
3.49600	748
3.49967	747
3.50333	748
3.50700	748
3.51067	748
3.51433	748
3.51800	746
3.52167	742
3.52533	739
3.52900	737
3.53267	735
3.53633	733
3.54000	731
3.54367	730
3.54733	730
3.55100	728
3.55467	727
3.55833	726
3.56200	725
3.56567	724
3.56933	722
3.57300	723
3.57667	722
3.58033	720
3.58400	719
3.58767	719
3.59133	719
3.59500	717
3.59867	715
3.60233	711
3.60600	708
3.60967	708
3.61333	705
3.61700	703
3.62067	702
3.62433	700
3.62800	699
3.63167	697
3.63533	694
3.63900	692
3.64267	690
3.64633	689
3.65000	687
3.65367	684
3.65733	680
3.66100	679
3.66467	680
3.66833	680
3.67200	681
3.67567	680
3.67933	678
3.68300	677
3.68667	674
3.69033	671
3.69400	669
3.69767	666
3.70133	662
3.70500	659
3.70867	656
3.71233	654
3.71600	652
3.71967	651
3.72333	649
3.72700	648
3.73067	647
3.73433	644
3.73800	641
3.74167	640
3.74533	638
3.74900	637
3.75267	635
3.75633	633
3.76000	632
3.76367	628
3.76733	626
3.77100	623
3.77467	621
3.77833	620
3.78200	617
3.78567	616
3.78933	616
3.79300	615
3.79667	611
3.80033	608
3.80400	605
3.80767	603
3.81133	602
3.81500	601
3.81867	599
3.82233	597
3.82600	597
3.82967	595
3.83333	595
3.83700	594
3.84067	593
3.84433	590
3.84800	585
3.85167	582
3.85533	581
3.85900	579
3.86267	576
3.86633	572
3.87000	572
3.87367	573
3.87733	571
3.88100	570
3.88467	567
3.88833	565
3.89200	563
3.89567	562
3.89933	559
3.90300	556
3.90667	553
3.91033	553
3.91400	552
3.91767	549
3.92133	548
3.92500	547
3.92867	547
3.93233	547
3.93600	546
3.93967	544
3.94333	542
3.94700	540
3.95067	538
3.95433	538
3.95800	537
3.96167	535
3.96533	534
3.96900	532
3.97267	532
3.97633	532
3.98000	533
3.98367	533
3.98733	532
3.99100	532
3.99467	533
3.99833	531

[Status Trace (Column Oven Temperature)]
Interval(msec)	1000
# of Points	239
Start Time(min)	0.009
End Time(min)	3.976
Intensity Units	
Intensity Multiplier	1
R.Time (min)	Intensity
0.00947	35.05
0.02613	35.04
0.04280	35.02
0.05947	35.03
0.07613	35.03
0.09280	35.01
0.10947	35.02
0.12613	35.02
0.14280	35.03
0.15947	35.03
0.17613	35.02
0.19280	35.02
0.20947	35.02
0.22613	35.01
0.24280	35.00
0.25947	34.99
0.27613	34.98
0.29280	34.98
0.30947	34.98
0.32613	34.98
0.34280	34.99
0.35947	35.01
0.37613	35.02
0.39280	35.01
0.40947	35.00
0.42613	34.99
0.44280	35.00
0.45947	35.01
0.47613	35.03
0.49280	35.03
0.50947	35.02
0.52613	35.02
0.54280	35.02
0.55947	35.02
0.57613	35.00
0.59280	35.00
0.60947	35.01
0.62613	35.01
0.64280	35.02
0.65947	35.01
0.67613	34.99
0.69280	34.99
0.70947	35.00
0.72613	34.99
0.74280	35.00
0.75947	35.01
0.77613	35.01
0.79280	35.01
0.80947	35.01
0.82613	35.00
0.84280	34.99
0.85947	34.99
0.87613	34.98
0.89280	34.97
0.90947	34.97
0.92613	34.97
0.94280	34.98
0.95947	35.00
0.97613	35.01
0.99280	35.02
1.00947	35.02
1.02613	35.01
1.04280	35.01
1.05947	35.02
1.07613	35.02
1.09280	35.01
1.10947	35.00
1.12613	35.01
1.14280	35.02
1.15947	35.02
1.17613	35.02
1.19280	35.02
1.20947	35.01
1.22613	35.00
1.24280	34.98
1.25947	34.98
1.27613	34.97
1.29280	34.97
1.30947	34.97
1.32613	34.98
1.34280	35.00
1.35947	35.01
1.37613	35.01
1.39280	35.00
1.40947	34.99
1.42613	34.99
1.44280	35.00
1.45947	35.01
1.47613	35.01
1.49280	35.00
1.50947	34.99
1.52613	34.99
1.54280	35.00
1.55947	34.99
1.57613	35.00
1.59280	35.00
1.60947	35.07
1.62613	35.19
1.64280	35.38
1.65947	35.63
1.67613	35.98
1.69280	36.37
1.70947	36.72
1.72613	37.06
1.74280	37.37
1.75947	37.68
1.77613	38.04
1.79280	38.37
1.80947	38.70
1.82613	39.04
1.84280	39.36
1.85947	39.71
1.87613	40.02
1.89280	40.35
1.90947	40.71
1.92613	41.02
1.94280	41.34
1.95947	41.68
1.97613	41.99
1.99280	42.31
2.00947	42.63
2.02613	43.00
2.04280	43.30
2.05947	43.62
2.07613	43.94
2.09280	44.27
2.10947	44.61
2.12613	44.94
2.14280	45.28
2.15947	45.60
2.17613	45.93
2.19280	46.25
2.20947	46.59
2.22613	46.92
2.24280	47.25
2.25947	47.57
2.27613	47.89
2.29280	48.22
2.30947	48.57
2.32613	48.88
2.34280	49.18
2.35947	49.44
2.37613	49.62
2.39280	49.68
2.40947	49.66
2.42613	49.66
2.44280	49.66
2.45947	49.65
2.47613	49.67
2.49280	49.68
2.50947	49.69
2.52613	49.71
2.54280	49.71
2.55947	49.76
2.57613	49.78
2.59280	49.78
2.60947	49.80
2.62613	49.82
2.64280	49.86
2.65947	49.85
2.67613	49.83
2.69280	49.86
2.70947	49.85
2.72613	49.84
2.74280	49.85
2.75947	49.87
2.77613	49.87
2.79280	49.86
2.80947	49.85
2.82613	49.86
2.84280	49.90
2.85947	49.93
2.87613	49.94
2.89280	49.93
2.90947	49.93
2.92613	49.93
2.94280	49.94
2.95947	49.96
2.97613	49.97
2.99280	49.97
3.00947	49.98
3.02613	49.97
3.04280	49.97
3.05947	49.97
3.07613	49.98
3.09280	49.99
3.10947	50.00
3.12613	50.02
3.14280	50.04
3.15947	50.04
3.17613	50.04
3.19280	50.05
3.20947	50.05
3.22613	50.05
3.24280	50.05
3.25947	50.06
3.27613	50.06
3.29280	50.07
3.30947	50.08
3.32613	50.10
3.34280	50.11
3.35947	50.11
3.37613	50.11
3.39280	50.09
3.40947	50.07
3.42613	50.06
3.44280	50.05
3.45947	50.04
3.47613	50.04
3.49280	50.04
3.50947	50.04
3.52613	50.04
3.54280	50.03
3.55947	50.03
3.57613	50.02
3.59280	50.02
3.60947	50.01
3.62613	50.02
3.64280	50.02
3.65947	50.02
3.67613	50.03
3.69280	50.04
3.70947	50.05
3.72613	50.05
3.74280	50.05
3.75947	50.05
3.77613	50.05
3.79280	50.05
3.80947	50.05
3.82613	50.03
3.84280	50.04
3.85947	50.03
3.87613	50.04
3.89280	50.04
3.90947	50.05
3.92613	50.06
3.94280	50.07
3.95947	50.08
3.97613	50.07

[Status Trace (Injection Unit Temperature)]
Interval(msec)	1000
# of Points	239
Start Time(min)	0.009
End Time(min)	3.976
Intensity Units	
Intensity Multiplier	1
R.Time (min)	Intensity
0.00947	99.98
0.02613	99.99
0.04280	99.98
0.05947	99.98
0.07613	99.99
0.09280	99.98
0.10947	99.99
0.12613	99.99
0.14280	99.98
0.15947	99.98
0.17613	99.99
0.19280	99.99
0.20947	99.99
0.22613	99.99
0.24280	99.99
0.25947	99.99
0.27613	99.98
0.29280	99.98
0.30947	99.98
0.32613	99.99
0.34280	99.98
0.35947	99.99
0.37613	99.99
0.39280	99.99
0.40947	99.99
0.42613	99.98
0.44280	99.99
0.45947	99.99
0.47613	99.99
0.49280	99.99
0.50947	99.98
0.52613	99.99
0.54280	99.99
0.55947	99.98
0.57613	99.98
0.59280	99.99
0.60947	99.98
0.62613	99.98
0.64280	99.98
0.65947	99.98
0.67613	99.98
0.69280	99.98
0.70947	99.98
0.72613	99.98
0.74280	99.98
0.75947	99.98
0.77613	99.98
0.79280	99.98
0.80947	99.98
0.82613	99.98
0.84280	99.97
0.85947	99.98
0.87613	99.98
0.89280	99.98
0.90947	99.98
0.92613	99.98
0.94280	99.98
0.95947	99.98
0.97613	99.97
0.99280	99.98
1.00947	99.97
1.02613	99.98
1.04280	99.98
1.05947	99.98
1.07613	99.98
1.09280	99.98
1.10947	99.98
1.12613	99.98
1.14280	99.98
1.15947	99.98
1.17613	99.98
1.19280	99.98
1.20947	99.98
1.22613	99.98
1.24280	99.98
1.25947	99.98
1.27613	99.98
1.29280	99.98
1.30947	99.98
1.32613	99.98
1.34280	99.98
1.35947	99.99
1.37613	99.98
1.39280	99.98
1.40947	99.99
1.42613	99.99
1.44280	99.99
1.45947	99.99
1.47613	99.98
1.49280	99.98
1.50947	99.98
1.52613	99.99
1.54280	99.99
1.55947	99.99
1.57613	99.99
1.59280	99.99
1.60947	99.99
1.62613	99.99
1.64280	99.99
1.65947	99.99
1.67613	99.99
1.69280	99.99
1.70947	99.99
1.72613	99.99
1.74280	99.99
1.75947	99.99
1.77613	99.99
1.79280	99.99
1.80947	99.99
1.82613	99.99
1.84280	99.98
1.85947	99.98
1.87613	99.98
1.89280	99.98
1.90947	99.98
1.92613	99.98
1.94280	99.98
1.95947	99.98
1.97613	99.98
1.99280	99.98
2.00947	99.97
2.02613	99.97
2.04280	99.97
2.05947	99.97
2.07613	99.97
2.09280	99.97
2.10947	99.97
2.12613	99.96
2.14280	99.97
2.15947	99.97
2.17613	99.97
2.19280	99.97
2.20947	99.97
2.22613	99.96
2.24280	99.96
2.25947	99.97
2.27613	99.97
2.29280	99.96
2.30947	99.97
2.32613	99.96
2.34280	99.97
2.35947	99.97
2.37613	99.96
2.39280	99.96
2.40947	99.96
2.42613	99.97
2.44280	99.97
2.45947	99.97
2.47613	99.97
2.49280	99.96
2.50947	99.97
2.52613	99.97
2.54280	99.97
2.55947	99.97
2.57613	99.97
2.59280	99.97
2.60947	99.97
2.62613	99.97
2.64280	99.97
2.65947	99.97
2.67613	99.98
2.69280	99.98
2.70947	99.98
2.72613	99.98
2.74280	99.98
2.75947	99.98
2.77613	99.99
2.79280	99.99
2.80947	99.99
2.82613	99.99
2.84280	99.99
2.85947	100.00
2.87613	100.00
2.89280	99.99
2.90947	100.00
2.92613	100.00
2.94280	100.00
2.95947	100.01
2.97613	100.01
2.99280	100.01
3.00947	100.01
3.02613	100.02
3.04280	100.01
3.05947	100.02
3.07613	100.02
3.09280	100.02
3.10947	100.02
3.12613	100.02
3.14280	100.02
3.15947	100.03
3.17613	100.02
3.19280	100.03
3.20947	100.03
3.22613	100.03
3.24280	100.03
3.25947	100.03
3.27613	100.03
3.29280	100.03
3.30947	100.03
3.32613	100.03
3.34280	100.03
3.35947	100.03
3.37613	100.03
3.39280	100.03
3.40947	100.03
3.42613	100.03
3.44280	100.03
3.45947	100.04
3.47613	100.04
3.49280	100.04
3.50947	100.04
3.52613	100.04
3.54280	100.04
3.55947	100.03
3.57613	100.04
3.59280	100.04
3.60947	100.04
3.62613	100.04
3.64280	100.04
3.65947	100.05
3.67613	100.04
3.69280	100.04
3.70947	100.04
3.72613	100.04
3.74280	100.04
3.75947	100.04
3.77613	100.05
3.79280	100.05
3.80947	100.05
3.82613	100.05
3.84280	100.05
3.85947	100.05
3.87613	100.05
3.89280	100.05
3.90947	100.05
3.92613	100.05
3.94280	100.05
3.95947	100.05
3.97613	100.05

[Status Trace (Carrier Gas Pressure)]
Interval(msec)	1000
# of Points	239
Start Time(min)	0.009
End Time(min)	3.976
Intensity Units	
Intensity Multiplier	1
R.Time (min)	Intensity
0.00947	58.00
0.02613	55.20
0.04280	57.39
0.05947	59.42
0.07613	59.20
0.09280	58.02
0.10947	57.99
0.12613	58.01
0.14280	58.01
0.15947	58.00
0.17613	58.00
0.19280	58.00
0.20947	58.00
0.22613	58.00
0.24280	58.00
0.25947	58.00
0.27613	58.00
0.29280	58.00
0.30947	58.00
0.32613	58.00
0.34280	58.00
0.35947	58.00
0.37613	58.00
0.39280	58.00
0.40947	58.00
0.42613	58.00
0.44280	58.00
0.45947	58.00
0.47613	58.00
0.49280	58.00
0.50947	58.00
0.52613	58.00
0.54280	58.00
0.55947	58.00
0.57613	58.00
0.59280	58.00
0.60947	58.00
0.62613	58.00
0.64280	58.00
0.65947	58.00
0.67613	58.00
0.69280	58.00
0.70947	58.00
0.72613	58.00
0.74280	58.00
0.75947	58.00
0.77613	58.00
0.79280	58.00
0.80947	58.00
0.82613	58.00
0.84280	58.00
0.85947	58.00
0.87613	58.00
0.89280	58.00
0.90947	58.00
0.92613	58.00
0.94280	58.00
0.95947	58.00
0.97613	58.00
0.99280	58.00
1.00947	58.00
1.02613	58.00
1.04280	58.00
1.05947	58.00
1.07613	58.00
1.09280	58.00
1.10947	58.00
1.12613	58.00
1.14280	58.00
1.15947	58.00
1.17613	58.00
1.19280	58.00
1.20947	58.00
1.22613	58.00
1.24280	58.00
1.25947	58.00
1.27613	58.00
1.29280	58.00
1.30947	58.00
1.32613	58.00
1.34280	58.00
1.35947	58.00
1.37613	58.00
1.39280	58.00
1.40947	58.00
1.42613	58.00
1.44280	58.00
1.45947	58.00
1.47613	58.00
1.49280	58.00
1.50947	58.00
1.52613	58.00
1.54280	58.00
1.55947	58.00
1.57613	58.00
1.59280	58.00
1.60947	58.00
1.62613	58.00
1.64280	58.01
1.65947	58.00
1.67613	58.01
1.69280	58.00
1.70947	58.00
1.72613	58.00
1.74280	58.00
1.75947	58.00
1.77613	58.00
1.79280	58.00
1.80947	58.00
1.82613	58.00
1.84280	58.00
1.85947	58.00
1.87613	58.00
1.89280	58.00
1.90947	58.00
1.92613	58.00
1.94280	58.00
1.95947	58.00
1.97613	58.00
1.99280	58.00
2.00947	58.00
2.02613	58.00
2.04280	58.00
2.05947	58.00
2.07613	58.00
2.09280	58.00
2.10947	58.00
2.12613	58.00
2.14280	58.00
2.15947	58.00
2.17613	58.00
2.19280	58.00
2.20947	58.00
2.22613	58.00
2.24280	58.00
2.25947	58.00
2.27613	58.00
2.29280	58.00
2.30947	58.00
2.32613	58.00
2.34280	58.00
2.35947	58.00
2.37613	58.00
2.39280	57.99
2.40947	57.99
2.42613	58.00
2.44280	58.00
2.45947	58.00
2.47613	58.00
2.49280	58.00
2.50947	58.00
2.52613	57.98
2.54280	58.00
2.55947	58.00
2.57613	58.00
2.59280	58.00
2.60947	58.00
2.62613	58.00
2.64280	58.00
2.65947	58.00
2.67613	58.00
2.69280	58.00
2.70947	58.00
2.72613	58.00
2.74280	58.00
2.75947	58.00
2.77613	58.00
2.79280	58.00
2.80947	58.00
2.82613	58.00
2.84280	58.00
2.85947	58.00
2.87613	58.00
2.89280	58.00
2.90947	58.00
2.92613	58.00
2.94280	58.00
2.95947	58.00
2.97613	58.00
2.99280	58.00
3.00947	58.00
3.02613	58.00
3.04280	58.00
3.05947	58.00
3.07613	58.00
3.09280	58.00
3.10947	58.00
3.12613	58.00
3.14280	58.00
3.15947	58.00
3.17613	58.00
3.19280	58.00
3.20947	58.00
3.22613	58.00
3.24280	58.00
3.25947	58.00
3.27613	58.00
3.29280	58.00
3.30947	58.00
3.32613	58.00
3.34280	58.00
3.35947	58.00
3.37613	58.00
3.39280	58.00
3.40947	58.00
3.42613	58.00
3.44280	58.00
3.45947	58.00
3.47613	58.00
3.49280	58.00
3.50947	58.00
3.52613	58.00
3.54280	58.00
3.55947	58.00
3.57613	58.00
3.59280	58.00
3.60947	58.00
3.62613	58.00
3.64280	58.00
3.65947	58.00
3.67613	58.00
3.69280	58.00
3.70947	58.00
3.72613	58.00
3.74280	58.00
3.75947	58.00
3.77613	58.00
3.79280	58.00
3.80947	58.00
3.82613	58.00
3.84280	58.00
3.85947	58.00
3.87613	58.00
3.89280	58.00
3.90947	58.00
3.92613	58.00
3.94280	58.00
3.95947	58.00
3.97613	58.00

[Status Trace (Carrier Gas Flow)]
Interval(msec)	1000
# of Points	239
Start Time(min)	0.009
End Time(min)	3.976
Intensity Units	
Intensity Multiplier	1
R.Time (min)	Intensity
0.00947	34.53
0.02613	34.54
0.04280	34.55
0.05947	34.54
0.07613	34.50
0.09280	34.52
0.10947	34.51
0.12613	34.52
0.14280	34.52
0.15947	34.52
0.17613	34.51
0.19280	34.51
0.20947	34.52
0.22613	34.52
0.24280	34.52
0.25947	34.52
0.27613	34.52
0.29280	34.52
0.30947	34.52
0.32613	34.52
0.34280	34.51
0.35947	34.52
0.37613	34.52
0.39280	34.52
0.40947	34.52
0.42613	34.52
0.44280	34.52
0.45947	34.51
0.47613	34.53
0.49280	34.51
0.50947	34.51
0.52613	34.53
0.54280	34.52
0.55947	34.52
0.57613	34.51
0.59280	34.51
0.60947	34.52
0.62613	34.51
0.64280	34.51
0.65947	34.52
0.67613	34.52
0.69280	34.52
0.70947	34.52
0.72613	34.52
0.74280	34.52
0.75947	34.52
0.77613	34.51
0.79280	34.52
0.80947	34.52
0.82613	34.52
0.84280	34.52
0.85947	34.52
0.87613	34.52
0.89280	34.52
0.90947	34.51
0.92613	34.52
0.94280	34.53
0.95947	34.52
0.97613	34.51
0.99280	34.52
1.00947	34.52
1.02613	34.52
1.04280	34.52
1.05947	34.52
1.07613	34.52
1.09280	34.52
1.10947	34.51
1.12613	34.52
1.14280	34.52
1.15947	34.52
1.17613	34.52
1.19280	34.52
1.20947	34.52
1.22613	34.52
1.24280	34.51
1.25947	34.52
1.27613	34.52
1.29280	34.52
1.30947	34.52
1.32613	34.52
1.34280	34.52
1.35947	34.51
1.37613	34.52
1.39280	34.52
1.40947	34.52
1.42613	34.52
1.44280	34.52
1.45947	34.52
1.47613	34.52
1.49280	34.52
1.50947	34.51
1.52613	34.52
1.54280	34.53
1.55947	34.52
1.57613	34.52
1.59280	34.52
1.60947	34.52
1.62613	34.51
1.64280	34.51
1.65947	34.52
1.67613	34.53
1.69280	34.52
1.70947	34.52
1.72613	34.52
1.74280	34.51
1.75947	34.51
1.77613	34.53
1.79280	34.53
1.80947	34.52
1.82613	34.51
1.84280	34.52
1.85947	34.52
1.87613	34.52
1.89280	34.52
1.90947	34.52
1.92613	34.53
1.94280	34.53
1.95947	34.51
1.97613	34.52
1.99280	34.53
2.00947	34.52
2.02613	34.52
2.04280	34.53
2.05947	34.53
2.07613	34.52
2.09280	34.51
2.10947	34.52
2.12613	34.51
2.14280	34.52
2.15947	34.52
2.17613	34.52
2.19280	34.51
2.20947	34.52
2.22613	34.53
2.24280	34.52
2.25947	34.52
2.27613	34.52
2.29280	34.51
2.30947	34.52
2.32613	34.51
2.34280	34.52
2.35947	34.52
2.37613	34.52
2.39280	34.52
2.40947	34.51
2.42613	34.52
2.44280	34.52
2.45947	34.51
2.47613	34.52
2.49280	34.52
2.50947	34.33
2.52613	34.52
2.54280	34.52
2.55947	34.52
2.57613	34.52
2.59280	34.52
2.60947	34.52
2.62613	34.52
2.64280	34.52
2.65947	34.52
2.67613	34.52
2.69280	34.52
2.70947	34.52
2.72613	34.52
2.74280	34.52
2.75947	34.52
2.77613	34.52
2.79280	34.52
2.80947	34.52
2.82613	34.52
2.84280	34.52
2.85947	34.52
2.87613	34.52
2.89280	34.51
2.90947	34.52
2.92613	34.52
2.94280	34.51
2.95947	34.52
2.97613	34.52
2.99280	34.52
3.00947	34.52
3.02613	34.52
3.04280	34.52
3.05947	34.52
3.07613	34.52
3.09280	34.52
3.10947	34.52
3.12613	34.52
3.14280	34.52
3.15947	34.51
3.17613	34.52
3.19280	34.52
3.20947	34.52
3.22613	34.52
3.24280	34.51
3.25947	34.52
3.27613	34.52
3.29280	34.52
3.30947	34.52
3.32613	34.52
3.34280	34.52
3.35947	34.52
3.37613	34.52
3.39280	34.52
3.40947	34.51
3.42613	34.52
3.44280	34.52
3.45947	34.52
3.47613	34.52
3.49280	34.52
3.50947	34.52
3.52613	34.52
3.54280	34.52
3.55947	34.52
3.57613	34.52
3.59280	34.52
3.60947	34.52
3.62613	34.52
3.64280	34.52
3.65947	34.52
3.67613	34.52
3.69280	34.52
3.70947	34.52
3.72613	34.52
3.74280	34.52
3.75947	34.52
3.77613	34.52
3.79280	34.52
3.80947	34.52
3.82613	34.52
3.84280	34.52
3.85947	34.52
3.87613	34.52
3.89280	34.52
3.90947	34.52
3.92613	34.52
3.94280	34.52
3.95947	34.52
3.97613	34.52

[Status Trace (Column Flow)]
Interval(msec)	1000
# of Points	239
Start Time(min)	0.009
End Time(min)	3.976
Intensity Units	
Intensity Multiplier	1
R.Time (min)	Intensity
0.00947	5.54
0.02613	5.21
0.04280	5.47
0.05947	5.70
0.07613	5.68
0.09280	5.54
0.10947	5.54
0.12613	5.54
0.14280	5.54
0.15947	5.54
0.17613	5.54
0.19280	5.54
0.20947	5.54
0.22613	5.54
0.24280	5.54
0.25947	5.54
0.27613	5.54
0.29280	5.54
0.30947	5.54
0.32613	5.54
0.34280	5.54
0.35947	5.54
0.37613	5.54
0.39280	5.54
0.40947	5.54
0.42613	5.54
0.44280	5.54
0.45947	5.54
0.47613	5.54
0.49280	5.54
0.50947	5.54
0.52613	5.54
0.54280	5.54
0.55947	5.54
0.57613	5.54
0.59280	5.54
0.60947	5.54
0.62613	5.54
0.64280	5.54
0.65947	5.54
0.67613	5.54
0.69280	5.54
0.70947	5.54
0.72613	5.54
0.74280	5.54
0.75947	5.54
0.77613	5.54
0.79280	5.54
0.80947	5.54
0.82613	5.54
0.84280	5.54
0.85947	5.54
0.87613	5.54
0.89280	5.54
0.90947	5.54
0.92613	5.54
0.94280	5.54
0.95947	5.54
0.97613	5.54
0.99280	5.54
1.00947	5.54
1.02613	5.54
1.04280	5.54
1.05947	5.54
1.07613	5.54
1.09280	5.54
1.10947	5.54
1.12613	5.54
1.14280	5.54
1.15947	5.54
1.17613	5.54
1.19280	5.54
1.20947	5.54
1.22613	5.54
1.24280	5.54
1.25947	5.54
1.27613	5.54
1.29280	5.54
1.30947	5.54
1.32613	5.54
1.34280	5.54
1.35947	5.54
1.37613	5.54
1.39280	5.54
1.40947	5.54
1.42613	5.54
1.44280	5.54
1.45947	5.54
1.47613	5.54
1.49280	5.54
1.50947	5.54
1.52613	5.54
1.54280	5.54
1.55947	5.54
1.57613	5.54
1.59280	5.54
1.60947	5.54
1.62613	5.53
1.64280	5.53
1.65947	5.52
1.67613	5.51
1.69280	5.50
1.70947	5.48
1.72613	5.47
1.74280	5.46
1.75947	5.45
1.77613	5.44
1.79280	5.43
1.80947	5.42
1.82613	5.41
1.84280	5.40
1.85947	5.39
1.87613	5.38
1.89280	5.37
1.90947	5.36
1.92613	5.35
1.94280	5.34
1.95947	5.33
1.97613	5.32
1.99280	5.31
2.00947	5.30
2.02613	5.29
2.04280	5.28
2.05947	5.27
2.07613	5.27
2.09280	5.26
2.10947	5.25
2.12613	5.24
2.14280	5.23
2.15947	5.22
2.17613	5.21
2.19280	5.20
2.20947	5.19
2.22613	5.18
2.24280	5.17
2.25947	5.16
2.27613	5.15
2.29280	5.14
2.30947	5.13
2.32613	5.12
2.34280	5.12
2.35947	5.11
2.37613	5.10
2.39280	5.10
2.40947	5.10
2.42613	5.10
2.44280	5.10
2.45947	5.10
2.47613	5.10
2.49280	5.10
2.50947	5.10
2.52613	5.10
2.54280	5.10
2.55947	5.10
2.57613	5.10
2.59280	5.10
2.60947	5.10
2.62613	5.10
2.64280	5.10
2.65947	5.10
2.67613	5.10
2.69280	5.10
2.70947	5.10
2.72613	5.10
2.74280	5.10
2.75947	5.10
2.77613	5.10
2.79280	5.10
2.80947	5.10
2.82613	5.10
2.84280	5.10
2.85947	5.10
2.87613	5.09
2.89280	5.09
2.90947	5.10
2.92613	5.10
2.94280	5.09
2.95947	5.09
2.97613	5.09
2.99280	5.09
3.00947	5.09
3.02613	5.09
3.04280	5.09
3.05947	5.09
3.07613	5.09
3.09280	5.09
3.10947	5.09
3.12613	5.09
3.14280	5.09
3.15947	5.09
3.17613	5.09
3.19280	5.09
3.20947	5.09
3.22613	5.09
3.24280	5.09
3.25947	5.09
3.27613	5.09
3.29280	5.09
3.30947	5.09
3.32613	5.09
3.34280	5.09
3.35947	5.09
3.37613	5.09
3.39280	5.09
3.40947	5.09
3.42613	5.09
3.44280	5.09
3.45947	5.09
3.47613	5.09
3.49280	5.09
3.50947	5.09
3.52613	5.09
3.54280	5.09
3.55947	5.09
3.57613	5.09
3.59280	5.09
3.60947	5.09
3.62613	5.09
3.64280	5.09
3.65947	5.09
3.67613	5.09
3.69280	5.09
3.70947	5.09
3.72613	5.09
3.74280	5.09
3.75947	5.09
3.77613	5.09
3.79280	5.09
3.80947	5.09
3.82613	5.09
3.84280	5.09
3.85947	5.09
3.87613	5.09
3.89280	5.09
3.90947	5.09
3.92613	5.09
3.94280	5.09
3.95947	5.09
3.97613	5.09

[Status Trace (Linear Velocity)]
Interval(msec)	1000
# of Points	239
Start Time(min)	0.009
End Time(min)	3.976
Intensity Units	
Intensity Multiplier	1
R.Time (min)	Intensity
0.00947	39.02
0.02613	37.18
0.04280	38.62
0.05947	39.95
0.07613	39.80
0.09280	39.03
0.10947	39.01
0.12613	39.03
0.14280	39.02
0.15947	39.02
0.17613	39.02
0.19280	39.02
0.20947	39.02
0.22613	39.02
0.24280	39.02
0.25947	39.02
0.27613	39.02
0.29280	39.02
0.30947	39.02
0.32613	39.02
0.34280	39.02
0.35947	39.02
0.37613	39.02
0.39280	39.02
0.40947	39.02
0.42613	39.02
0.44280	39.02
0.45947	39.02
0.47613	39.02
0.49280	39.02
0.50947	39.02
0.52613	39.02
0.54280	39.02
0.55947	39.02
0.57613	39.02
0.59280	39.02
0.60947	39.02
0.62613	39.02
0.64280	39.02
0.65947	39.02
0.67613	39.02
0.69280	39.02
0.70947	39.02
0.72613	39.02
0.74280	39.02
0.75947	39.02
0.77613	39.02
0.79280	39.02
0.80947	39.02
0.82613	39.02
0.84280	39.02
0.85947	39.02
0.87613	39.02
0.89280	39.02
0.90947	39.02
0.92613	39.02
0.94280	39.02
0.95947	39.02
0.97613	39.02
0.99280	39.02
1.00947	39.02
1.02613	39.02
1.04280	39.02
1.05947	39.02
1.07613	39.02
1.09280	39.02
1.10947	39.02
1.12613	39.02
1.14280	39.02
1.15947	39.02
1.17613	39.02
1.19280	39.02
1.20947	39.02
1.22613	39.02
1.24280	39.02
1.25947	39.02
1.27613	39.02
1.29280	39.02
1.30947	39.02
1.32613	39.02
1.34280	39.02
1.35947	39.02
1.37613	39.02
1.39280	39.02
1.40947	39.02
1.42613	39.02
1.44280	39.02
1.45947	39.02
1.47613	39.02
1.49280	39.02
1.50947	39.02
1.52613	39.02
1.54280	39.02
1.55947	39.02
1.57613	39.02
1.59280	39.02
1.60947	39.02
1.62613	39.00
1.64280	38.99
1.65947	38.96
1.67613	38.93
1.69280	38.89
1.70947	38.86
1.72613	38.82
1.74280	38.79
1.75947	38.76
1.77613	38.73
1.79280	38.70
1.80947	38.67
1.82613	38.64
1.84280	38.61
1.85947	38.57
1.87613	38.54
1.89280	38.51
1.90947	38.48
1.92613	38.45
1.94280	38.42
1.95947	38.39
1.97613	38.36
1.99280	38.33
2.00947	38.30
2.02613	38.27
2.04280	38.24
2.05947	38.21
2.07613	38.18
2.09280	38.15
2.10947	38.12
2.12613	38.09
2.14280	38.06
2.15947	38.03
2.17613	38.00
2.19280	37.97
2.20947	37.94
2.22613	37.91
2.24280	37.88
2.25947	37.85
2.27613	37.82
2.29280	37.79
2.30947	37.76
2.32613	37.73
2.34280	37.71
2.35947	37.69
2.37613	37.67
2.39280	37.66
2.40947	37.66
2.42613	37.67
2.44280	37.67
2.45947	37.67
2.47613	37.66
2.49280	37.66
2.50947	37.66
2.52613	37.65
2.54280	37.66
2.55947	37.66
2.57613	37.66
2.59280	37.65
2.60947	37.65
2.62613	37.65
2.64280	37.65
2.65947	37.65
2.67613	37.65
2.69280	37.65
2.70947	37.65
2.72613	37.65
2.74280	37.65
2.75947	37.65
2.77613	37.65
2.79280	37.65
2.80947	37.65
2.82613	37.65
2.84280	37.65
2.85947	37.64
2.87613	37.64
2.89280	37.64
2.90947	37.64
2.92613	37.64
2.94280	37.64
2.95947	37.64
2.97613	37.64
2.99280	37.64
3.00947	37.64
3.02613	37.64
3.04280	37.64
3.05947	37.64
3.07613	37.64
3.09280	37.64
3.10947	37.64
3.12613	37.63
3.14280	37.63
3.15947	37.63
3.17613	37.63
3.19280	37.63
3.20947	37.63
3.22613	37.63
3.24280	37.63
3.25947	37.63
3.27613	37.63
3.29280	37.63
3.30947	37.63
3.32613	37.63
3.34280	37.63
3.35947	37.63
3.37613	37.63
3.39280	37.63
3.40947	37.63
3.42613	37.63
3.44280	37.63
3.45947	37.63
3.47613	37.63
3.49280	37.63
3.50947	37.63
3.52613	37.63
3.54280	37.63
3.55947	37.63
3.57613	37.63
3.59280	37.63
3.60947	37.63
3.62613	37.63
3.64280	37.63
3.65947	37.63
3.67613	37.63
3.69280	37.63
3.70947	37.63
3.72613	37.63
3.74280	37.63
3.75947	37.63
3.77613	37.63
3.79280	37.63
3.80947	37.63
3.82613	37.63
3.84280	37.63
3.85947	37.63
3.87613	37.63
3.89280	37.63
3.90947	37.63
3.92613	37.63
3.94280	37.63
3.95947	37.63
3.97613	37.63

