[Header]
Application Name	LabSolutions
Version	5.110
Data File Name	C:\Users\User\Desktop\GC Analyses\Jack\Nachusa Grasslands Sampling\T3 Timepoint July 12th\T3_07122022_012.gcd
Output Date	3/14/2023
Output Time	3:43:30 PM

[File Information]
Type	Data File
Generated	3/13/2023 3:42:56 PM
Generated by	System Administrator
Modified	3/13/2023 3:49:34 PM
Modified by	System Administrator

[Sample Information]
Operator Name	System Administrator
Acquired	3/13/2023 3:45:32 PM
Sample Type	0:Unknown
Level	0
Sample Name	012
Sample ID	012
ISTD Amount1	1
ISTD Amount2	1
ISTD Amount3	1
ISTD Amount4	1
ISTD Amount5	1
ISTD Amount6	1
ISTD Amount7	1
ISTD Amount8	1
ISTD Amount9	1
ISTD Amount10	1
ISTD Amount11	1
ISTD Amount12	1
ISTD Amount13	1
ISTD Amount14	1
ISTD Amount15	1
ISTD Amount16	1
ISTD Amount17	1
ISTD Amount18	1
ISTD Amount19	1
ISTD Amount20	1
ISTD Amount21	1
ISTD Amount22	1
ISTD Amount23	1
ISTD Amount24	1
ISTD Amount25	1
ISTD Amount26	1
ISTD Amount27	1
ISTD Amount28	1
ISTD Amount29	1
ISTD Amount30	1
ISTD Amount31	1
ISTD Amount32	1
Sample Amount	1
Dilution Factor	1
Vial#	11
Injection Volume	1
Injection Count	1
Bar Code	

[Original Files]
Data File	C:\Users\User\Desktop\GC Analyses\Jack\Nachusa Grasslands Sampling\T3 Timepoint July 12th\T3_07122022_012.gcd
Method File	C:\LabSolutions\Data\GHG_4min_2022\ghg3_togas_w_acet_4 min_new_int.gcm
Batch File	C:\LabSolutions\Data\AutoSamplerTesting\T3_07122022.gcb
Report Format File	c:\LabSolutions\System\DEFAULT.lsr

[File Description]


[Configuration]
Instrument Name	C0B7VH3-Instrument1
Instrument #	1
Line #	1
# of Detectors	3
Detector ID	DET#1	DET#2	DET#3
Detector Name	FID	PTCD	ECD
# of Channels	1	1	1

[Peak Table(Ch1)]
# of Peaks	3
Peak#	R.Time	I.Time	F.Time	Area	Height	A/H	Conc.	Mark	ID#	Name	k'	Plate #	Plate Ht.	Tailing	Resolution	Sep.Factor	Area Ratio	Height Ratio	Conc. %	Norm Conc.
1	1.476	1.373	1.531	24818	11839	2.096	175.218	   	1	CO	0.000	9272	16.178	1.188	0.000	0.000	0	0	24.927	24.927
2	1.571	1.538	1.641	4060	2008	2.022	78.512	   	2	CH4	0.065	11280	13.298	1.206	1.583	0.000	0	0	11.169	11.169
3	2.000	1.952	2.264	1789801	869458	2.059	449.192	   	3	CO2	0.355	17640	8.503	1.200	7.186	5.500	0	0	63.904	63.904

[Peak Table(Ch2)]
# of Peaks	0

[Peak Table(Ch3)]
# of Peaks	5
Peak#	R.Time	I.Time	F.Time	Area	Height	A/H	Conc.	Mark	ID#	Name	k'	Plate #	Plate Ht.	Tailing	Resolution	Sep.Factor	Area Ratio	Height Ratio	Conc. %	Norm Conc.
1	2.462	2.392	2.506	1362	474	2.871	0.000	   			0.000	10649	14.086	0.000	0.000	0.000	0	0	0.000	0.000
2	2.524	2.506	2.576	834	279	2.988	0.000	 V 			0.025	4051	37.030	0.000	0.491	0.000	0	0	0.000	0.000
3	2.609	2.576	2.671	515	145	3.563	0.000	 V 			0.060	3273	45.834	0.000	0.495	2.353	0	0	0.000	0.000
4	2.880	2.689	3.063	18041	4739	3.807	0.461	   	1	N2O	0.170	13355	11.231	1.508	1.924	2.850	0	0	100.000	100.000
5	3.382	3.199	3.577	664	51	13.141	0.000	   	2	SF6	0.374	1648	90.999	1.038	2.321	2.202	0	0	0.000	0.000

[Compound Results(Ch1)]
# of IDs	6
ID#	Name	R.Time	Area	Height	Conc.	Curve	3rd	2nd	1st	Constant	Area Ratio	Height Ratio	Conc. %	Norm Conc.
1	CO	1.476	24818	11839	175.218	Linear	0.000000e+00	0.000000e+00	1.416423e+002	0.000000e+00	0	0	24.927	24.927
2	CH4	1.571	4060	2008	78.512	Linear	0.000000e+00	0.000000e+00	5.171738e+001	0.000000e+00	0	0	11.169	11.169
3	CO2	2.000	1789801	869458	449.192	Linear	0.000000e+00	0.000000e+00	3.984494e+003	0.000000e+00	0	0	63.904	63.904
4	Ethylene	0.000	0	0	0.000	Linear	0.000000e+00	0.000000e+00	0.000000e+00	0.000000e+00	0	0	0.000	0.000
5	Acetylene	0.000	0	0	0.000	Linear	0.000000e+00	0.000000e+00	0.000000e+00	0.000000e+00	0	0	0.000	0.000
6	Ethane	0.000	0	0	0.000	Linear	0.000000e+00	0.000000e+00	0.000000e+00	0.000000e+00	0	0	0.000	0.000

[Compound Results(Ch2)]
# of IDs	5
ID#	Name	R.Time	Area	Height	Conc.	Curve	3rd	2nd	1st	Constant	Area Ratio	Height Ratio	Conc. %	Norm Conc.
1	Hydrogen	0.000	0	0	0.000	Linear	0.000000e+00	0.000000e+00	0.000000e+00	0.000000e+00	0	0	0.000	0.000
2	Oxygen	0.000	0	0	0.000	Linear	0.000000e+00	0.000000e+00	0.000000e+00	0.000000e+00	0	0	0.000	0.000
3	Nitrogen	0.000	0	0	0.000	Linear	0.000000e+00	0.000000e+00	0.000000e+00	0.000000e+00	0	0	0.000	0.000
4	Methane	0.000	0	0	0.000	Linear	0.000000e+00	0.000000e+00	0.000000e+00	0.000000e+00	0	0	0.000	0.000
5	Carbon Monoxide	0.000	0	0	0.000	Linear	0.000000e+00	0.000000e+00	0.000000e+00	0.000000e+00	0	0	0.000	0.000

[Compound Results(Ch3)]
# of IDs	2
ID#	Name	R.Time	Area	Height	Conc.	Curve	3rd	2nd	1st	Constant	Area Ratio	Height Ratio	Conc. %	Norm Conc.
1	N2O	2.880	18041	4739	0.461	Linear	0.000000e+00	0.000000e+00	3.915173e+004	0.000000e+00	0	0	100.000	100.000
2	SF6	3.382	664	51	0.000	Linear	0.000000e+00	0.000000e+00	0.000000e+00	0.000000e+00	0	0	0.000	0.000

[Group Results(Ch1)]
# of Groups	0

[Group Results(Ch2)]
# of Groups	0

[Group Results(Ch3)]
# of Groups	0

[Chromatogram (Ch1)]
Interval(msec)	220
# of Points	1091
Start Time(min)	0.002
End Time(min)	3.998
R.Time (min)	Intensity
0.00167	-21
0.00533	-20
0.00900	-17
0.01267	-18
0.01633	-21
0.02000	-25
0.02367	-24
0.02733	-14
0.03100	-2
0.03467	-1
0.03833	-8
0.04200	-17
0.04567	-21
0.04933	-23
0.05300	-22
0.05667	-18
0.06033	-12
0.06400	-9
0.06767	-12
0.07133	-15
0.07500	-18
0.07867	-18
0.08233	-20
0.08600	-20
0.08967	-24
0.09333	-33
0.09700	-43
0.10067	-53
0.10433	-57
0.10800	-56
0.11167	-59
0.11533	-60
0.11900	-55
0.12267	-44
0.12633	-33
0.13000	-22
0.13367	-11
0.13733	-5
0.14100	-7
0.14467	-11
0.14833	-14
0.15200	-17
0.15567	-22
0.15933	-29
0.16300	-31
0.16667	-32
0.17033	-33
0.17400	-32
0.17767	-28
0.18133	-25
0.18500	-22
0.18867	-17
0.19233	-16
0.19600	-19
0.19967	-22
0.20333	-25
0.20700	-27
0.21067	-28
0.21433	-26
0.21800	-22
0.22167	-17
0.22533	-10
0.22900	-11
0.23267	-16
0.23633	-22
0.24000	-23
0.24367	-25
0.24733	-25
0.25100	-25
0.25467	-22
0.25833	-16
0.26200	-15
0.26567	-19
0.26933	-23
0.27300	-22
0.27667	-15
0.28033	-5
0.28400	-1
0.28767	-2
0.29133	-6
0.29500	-8
0.29867	-2
0.30233	3
0.30600	4
0.30967	0
0.31333	-5
0.31700	-14
0.32067	-21
0.32433	-27
0.32800	-34
0.33167	-34
0.33533	-34
0.33900	-32
0.34267	-26
0.34633	-21
0.35000	-15
0.35367	-8
0.35733	-3
0.36100	2
0.36467	0
0.36833	-5
0.37200	-13
0.37567	-24
0.37933	-30
0.38300	-31
0.38667	-35
0.39033	-42
0.39400	-50
0.39767	-54
0.40133	-54
0.40500	-53
0.40867	-49
0.41233	-41
0.41600	-32
0.41967	-29
0.42333	-30
0.42700	-33
0.43067	-31
0.43433	-22
0.43800	-18
0.44167	-20
0.44533	-19
0.44900	-17
0.45267	-19
0.45633	-20
0.46000	-18
0.46367	-14
0.46733	-12
0.47100	-17
0.47467	-26
0.47833	-37
0.48200	-48
0.48567	-60
0.48933	-70
0.49300	-75
0.49667	-75
0.50033	-70
0.50400	-63
0.50767	-55
0.51133	-50
0.51500	-43
0.51867	-34
0.52233	-23
0.52600	-19
0.52967	-25
0.53333	-34
0.53700	-40
0.54067	-40
0.54433	-38
0.54800	-33
0.55167	-23
0.55533	-17
0.55900	-13
0.56267	-14
0.56633	-21
0.57000	-25
0.57367	-20
0.57733	-22
0.58100	-33
0.58467	-40
0.58833	-44
0.59200	-47
0.59567	-51
0.59933	-48
0.60300	-45
0.60667	-44
0.61033	-38
0.61400	-31
0.61767	-28
0.62133	-28
0.62500	-24
0.62867	-26
0.63233	-32
0.63600	-40
0.63967	-53
0.64333	-68
0.64700	-80
0.65067	-85
0.65433	-79
0.65800	-78
0.66167	-82
0.66533	-82
0.66900	-75
0.67267	-73
0.67633	-75
0.68000	-78
0.68367	-82
0.68733	-81
0.69100	-76
0.69467	-74
0.69833	-76
0.70200	-76
0.70567	-75
0.70933	-68
0.71300	-57
0.71667	-48
0.72033	-38
0.72400	-27
0.72767	-22
0.73133	-24
0.73500	-30
0.73867	-34
0.74233	-38
0.74600	-40
0.74967	-40
0.75333	-37
0.75700	-36
0.76067	-37
0.76433	-41
0.76800	-42
0.77167	-41
0.77533	-44
0.77900	-52
0.78267	-60
0.78633	-64
0.79000	-60
0.79367	-56
0.79733	-51
0.80100	-48
0.80467	-45
0.80833	-43
0.81200	-44
0.81567	-45
0.81933	-46
0.82300	-48
0.82667	-46
0.83033	-45
0.83400	-49
0.83767	-56
0.84133	-61
0.84500	-64
0.84867	-65
0.85233	-66
0.85600	-68
0.85967	-70
0.86333	-74
0.86700	-79
0.87067	-80
0.87433	-77
0.87800	-74
0.88167	-71
0.88533	-68
0.88900	-62
0.89267	-61
0.89633	-63
0.90000	-66
0.90367	-65
0.90733	-63
0.91100	-63
0.91467	-61
0.91833	-58
0.92200	-60
0.92567	-71
0.92933	-79
0.93300	-84
0.93667	-86
0.94033	-86
0.94400	-80
0.94767	-71
0.95133	-63
0.95500	-61
0.95867	-61
0.96233	-57
0.96600	-52
0.96967	-50
0.97333	-52
0.97700	-56
0.98067	-62
0.98433	-64
0.98800	-61
0.99167	-60
0.99533	-57
0.99900	-56
1.00267	-59
1.00633	-71
1.01000	-83
1.01367	-93
1.01733	-100
1.02100	-107
1.02467	-111
1.02833	-116
1.03200	-117
1.03567	-115
1.03933	-110
1.04300	-101
1.04667	-91
1.05033	-85
1.05400	-83
1.05767	-81
1.06133	-82
1.06500	-87
1.06867	-95
1.07233	-106
1.07600	-109
1.07967	-100
1.08333	-90
1.08700	-84
1.09067	-81
1.09433	-85
1.09800	-92
1.10167	-100
1.10533	-107
1.10900	-109
1.11267	-107
1.11633	-98
1.12000	-91
1.12367	-85
1.12733	-82
1.13100	-86
1.13467	-92
1.13833	-97
1.14200	-97
1.14567	-93
1.14933	-86
1.15300	-77
1.15667	-76
1.16033	-80
1.16400	-87
1.16767	-89
1.17133	-91
1.17500	-91
1.17867	-91
1.18233	-91
1.18600	-95
1.18967	-93
1.19333	-90
1.19700	-87
1.20067	-83
1.20433	-83
1.20800	-82
1.21167	-77
1.21533	-67
1.21900	-58
1.22267	-56
1.22633	-61
1.23000	-74
1.23367	-86
1.23733	-92
1.24100	-92
1.24467	-89
1.24833	-83
1.25200	-76
1.25567	-74
1.25933	-76
1.26300	-76
1.26667	-73
1.27033	-70
1.27400	-70
1.27767	-71
1.28133	-72
1.28500	-67
1.28867	-67
1.29233	-71
1.29600	-74
1.29967	-80
1.30333	-80
1.30700	-81
1.31067	-80
1.31433	-79
1.31800	-75
1.32167	-70
1.32533	-66
1.32900	-65
1.33267	-67
1.33633	-69
1.34000	-70
1.34367	-74
1.34733	-79
1.35100	-84
1.35467	-83
1.35833	-79
1.36200	-77
1.36567	-75
1.36933	-79
1.37300	-90
1.37667	-98
1.38033	-100
1.38400	-97
1.38767	-94
1.39133	-92
1.39500	-82
1.39867	-71
1.40233	-64
1.40600	-60
1.40967	-61
1.41333	-69
1.41700	-75
1.42067	-82
1.42433	-87
1.42800	-92
1.43167	-96
1.43533	-95
1.43900	-84
1.44267	-42
1.44633	138
1.45000	676
1.45367	1771
1.45733	3558
1.46100	5784
1.46467	7949
1.46833	9713
1.47200	10926
1.47567	11504
1.47933	11350
1.48300	10432
1.48667	8903
1.49033	7062
1.49400	5231
1.49767	3641
1.50133	2381
1.50500	1450
1.50867	789
1.51233	331
1.51600	19
1.51967	-190
1.52333	-330
1.52700	-417
1.53067	-466
1.53433	-488
1.53800	-486
1.54167	-443
1.54533	-309
1.54900	-45
1.55267	325
1.55633	723
1.56000	1082
1.56367	1363
1.56733	1538
1.57100	1585
1.57467	1487
1.57833	1260
1.58200	956
1.58567	645
1.58933	373
1.59300	156
1.59667	-2
1.60033	-113
1.60400	-189
1.60767	-235
1.61133	-259
1.61500	-272
1.61867	-279
1.62233	-277
1.62600	-272
1.62967	-270
1.63333	-273
1.63700	-281
1.64067	-290
1.64433	-294
1.64800	-293
1.65167	-289
1.65533	-284
1.65900	-276
1.66267	-271
1.66633	-270
1.67000	-266
1.67367	-262
1.67733	-253
1.68100	-237
1.68467	-223
1.68833	-224
1.69200	-239
1.69567	-257
1.69933	-274
1.70300	-285
1.70667	-287
1.71033	-285
1.71400	-286
1.71767	-284
1.72133	-277
1.72500	-269
1.72867	-264
1.73233	-260
1.73600	-251
1.73967	-245
1.74333	-242
1.74700	-239
1.75067	-238
1.75433	-236
1.75800	-230
1.76167	-226
1.76533	-224
1.76900	-221
1.77267	-217
1.77633	-216
1.78000	-219
1.78367	-226
1.78733	-234
1.79100	-238
1.79467	-237
1.79833	-229
1.80200	-220
1.80567	-211
1.80933	-211
1.81300	-219
1.81667	-227
1.82033	-230
1.82400	-226
1.82767	-216
1.83133	-210
1.83500	-209
1.83867	-210
1.84233	-213
1.84600	-214
1.84967	-214
1.85333	-220
1.85700	-225
1.86067	-227
1.86433	-231
1.86800	-228
1.87167	-221
1.87533	-213
1.87900	-209
1.88267	-207
1.88633	-203
1.89000	-202
1.89367	-203
1.89733	-206
1.90100	-213
1.90467	-224
1.90833	-227
1.91200	-228
1.91567	-225
1.91933	-220
1.92300	-211
1.92667	-206
1.93033	-201
1.93400	-194
1.93767	-190
1.94133	-191
1.94500	-195
1.94867	-199
1.95233	-200
1.95600	-156
1.95967	174
1.96333	1928
1.96700	9002
1.97067	30748
1.97433	82337
1.97800	177592
1.98167	316608
1.98533	480952
1.98900	641644
1.99267	771449
1.99633	850873
2.00000	869304
2.00367	826329
2.00733	733237
2.01100	610197
2.01467	479657
2.01833	359525
2.02200	259683
2.02567	182650
2.02933	126307
2.03300	86610
2.03667	59338
2.04033	40892
2.04400	28508
2.04767	20211
2.05133	14638
2.05500	10858
2.05867	8257
2.06233	6437
2.06600	5138
2.06967	4193
2.07333	3494
2.07700	2968
2.08067	2565
2.08433	2250
2.08800	1993
2.09167	1772
2.09533	1580
2.09900	1409
2.10267	1259
2.10633	1132
2.11000	1025
2.11367	939
2.11733	868
2.12100	804
2.12467	750
2.12833	707
2.13200	668
2.13567	632
2.13933	595
2.14300	557
2.14667	519
2.15033	486
2.15400	457
2.15767	434
2.16133	419
2.16500	404
2.16867	388
2.17233	372
2.17600	355
2.17967	336
2.18333	317
2.18700	297
2.19067	279
2.19433	250
2.19800	222
2.20167	200
2.20533	186
2.20900	176
2.21267	168
2.21633	161
2.22000	151
2.22367	148
2.22733	151
2.23100	152
2.23467	149
2.23833	146
2.24200	141
2.24567	131
2.24933	119
2.25300	110
2.25667	104
2.26033	100
2.26400	97
2.26767	96
2.27133	102
2.27500	106
2.27867	102
2.28233	94
2.28600	90
2.28967	88
2.29333	85
2.29700	82
2.30067	78
2.30433	74
2.30800	73
2.31167	74
2.31533	72
2.31900	62
2.32267	50
2.32633	34
2.33000	18
2.33367	7
2.33733	1
2.34100	-1
2.34467	3
2.34833	11
2.35200	15
2.35567	15
2.35933	14
2.36300	15
2.36667	16
2.37033	16
2.37400	18
2.37767	20
2.38133	25
2.38500	28
2.38867	32
2.39233	33
2.39600	32
2.39967	30
2.40333	21
2.40700	13
2.41067	3
2.41433	-9
2.41800	-18
2.42167	-24
2.42533	-27
2.42900	-28
2.43267	-31
2.43633	-32
2.44000	-29
2.44367	-23
2.44733	-16
2.45100	-13
2.45467	-14
2.45833	-12
2.46200	-6
2.46567	2
2.46933	5
2.47300	5
2.47667	6
2.48033	7
2.48400	4
2.48767	-3
2.49133	-10
2.49500	-19
2.49867	-25
2.50233	-28
2.50600	-28
2.50967	-24
2.51333	-21
2.51700	-23
2.52067	-26
2.52433	-25
2.52800	-23
2.53167	-17
2.53533	-8
2.53900	1
2.54267	6
2.54633	8
2.55000	1
2.55367	-11
2.55733	-23
2.56100	-32
2.56467	-37
2.56833	-34
2.57200	-33
2.57567	-36
2.57933	-40
2.58300	-34
2.58667	-28
2.59033	-23
2.59400	-16
2.59767	-16
2.60133	-23
2.60500	-32
2.60867	-36
2.61233	-35
2.61600	-35
2.61967	-37
2.62333	-33
2.62700	-25
2.63067	-17
2.63433	-9
2.63800	-7
2.64167	-7
2.64533	-7
2.64900	-7
2.65267	-13
2.65633	-15
2.66000	-13
2.66367	-20
2.66733	-30
2.67100	-39
2.67467	-46
2.67833	-49
2.68200	-47
2.68567	-46
2.68933	-49
2.69300	-54
2.69667	-61
2.70033	-64
2.70400	-61
2.70767	-54
2.71133	-50
2.71500	-50
2.71867	-50
2.72233	-48
2.72600	-43
2.72967	-37
2.73333	-28
2.73700	-19
2.74067	-13
2.74433	-5
2.74800	-7
2.75167	-17
2.75533	-26
2.75900	-29
2.76267	-30
2.76633	-27
2.77000	-18
2.77367	-10
2.77733	-2
2.78100	1
2.78467	-4
2.78833	-15
2.79200	-27
2.79567	-35
2.79933	-34
2.80300	-24
2.80667	-12
2.81033	-1
2.81400	6
2.81767	10
2.82133	7
2.82500	-4
2.82867	-15
2.83233	-26
2.83600	-36
2.83967	-42
2.84333	-41
2.84700	-38
2.85067	-32
2.85433	-22
2.85800	-16
2.86167	-17
2.86533	-20
2.86900	-20
2.87267	-20
2.87633	-21
2.88000	-26
2.88367	-29
2.88733	-28
2.89100	-29
2.89467	-33
2.89833	-34
2.90200	-34
2.90567	-33
2.90933	-31
2.91300	-25
2.91667	-17
2.92033	-11
2.92400	-4
2.92767	-4
2.93133	-9
2.93500	-14
2.93867	-22
2.94233	-25
2.94600	-17
2.94967	-2
2.95333	11
2.95700	15
2.96067	13
2.96433	7
2.96800	-3
2.97167	-12
2.97533	-13
2.97900	-9
2.98267	-9
2.98633	-14
2.99000	-16
2.99367	-15
2.99733	-11
3.00100	-9
3.00467	-9
3.00833	-13
3.01200	-18
3.01567	-21
3.01933	-20
3.02300	-13
3.02667	-9
3.03033	-12
3.03400	-19
3.03767	-26
3.04133	-29
3.04500	-29
3.04867	-25
3.05233	-19
3.05600	-9
3.05967	-3
3.06333	-1
3.06700	-1
3.07067	-7
3.07433	-10
3.07800	-13
3.08167	-11
3.08533	-7
3.08900	-3
3.09267	-2
3.09633	-2
3.10000	-2
3.10367	-6
3.10733	-13
3.11100	-14
3.11467	-10
3.11833	-3
3.12200	-1
3.12567	-7
3.12933	-15
3.13300	-15
3.13667	-12
3.14033	-9
3.14400	-3
3.14767	4
3.15133	8
3.15500	9
3.15867	7
3.16233	1
3.16600	-8
3.16967	-15
3.17333	-19
3.17700	-25
3.18067	-31
3.18433	-33
3.18800	-29
3.19167	-26
3.19533	-24
3.19900	-23
3.20267	-26
3.20633	-28
3.21000	-28
3.21367	-28
3.21733	-32
3.22100	-35
3.22467	-33
3.22833	-31
3.23200	-25
3.23567	-22
3.23933	-23
3.24300	-21
3.24667	-20
3.25033	-20
3.25400	-20
3.25767	-18
3.26133	-15
3.26500	-14
3.26867	-14
3.27233	-16
3.27600	-21
3.27967	-26
3.28333	-27
3.28700	-25
3.29067	-27
3.29433	-28
3.29800	-26
3.30167	-26
3.30533	-22
3.30900	-12
3.31267	-2
3.31633	-2
3.32000	-9
3.32367	-19
3.32733	-33
3.33100	-43
3.33467	-42
3.33833	-39
3.34200	-39
3.34567	-39
3.34933	-35
3.35300	-32
3.35667	-30
3.36033	-30
3.36400	-31
3.36767	-28
3.37133	-26
3.37500	-26
3.37867	-28
3.38233	-31
3.38600	-31
3.38967	-25
3.39333	-20
3.39700	-17
3.40067	-18
3.40433	-17
3.40800	-12
3.41167	-9
3.41533	-9
3.41900	-13
3.42267	-18
3.42633	-21
3.43000	-21
3.43367	-20
3.43733	-14
3.44100	-6
3.44467	-5
3.44833	-12
3.45200	-28
3.45567	-42
3.45933	-50
3.46300	-52
3.46667	-49
3.47033	-48
3.47400	-46
3.47767	-45
3.48133	-47
3.48500	-44
3.48867	-39
3.49233	-39
3.49600	-40
3.49967	-40
3.50333	-41
3.50700	-41
3.51067	-43
3.51433	-45
3.51800	-44
3.52167	-41
3.52533	-34
3.52900	-32
3.53267	-36
3.53633	-43
3.54000	-48
3.54367	-46
3.54733	-43
3.55100	-43
3.55467	-43
3.55833	-38
3.56200	-34
3.56567	-29
3.56933	-27
3.57300	-27
3.57667	-28
3.58033	-27
3.58400	-25
3.58767	-23
3.59133	-17
3.59500	-10
3.59867	-5
3.60233	-8
3.60600	-15
3.60967	-19
3.61333	-25
3.61700	-34
3.62067	-44
3.62433	-55
3.62800	-62
3.63167	-64
3.63533	-61
3.63900	-60
3.64267	-64
3.64633	-68
3.65000	-71
3.65367	-69
3.65733	-63
3.66100	-56
3.66467	-51
3.66833	-47
3.67200	-39
3.67567	-28
3.67933	-20
3.68300	-23
3.68667	-34
3.69033	-48
3.69400	-60
3.69767	-70
3.70133	-77
3.70500	-79
3.70867	-77
3.71233	-76
3.71600	-73
3.71967	-67
3.72333	-63
3.72700	-57
3.73067	-46
3.73433	-40
3.73800	-41
3.74167	-47
3.74533	-51
3.74900	-54
3.75267	-52
3.75633	-49
3.76000	-49
3.76367	-52
3.76733	-59
3.77100	-66
3.77467	-67
3.77833	-63
3.78200	-58
3.78567	-54
3.78933	-51
3.79300	-50
3.79667	-48
3.80033	-44
3.80400	-40
3.80767	-38
3.81133	-34
3.81500	-31
3.81867	-29
3.82233	-29
3.82600	-31
3.82967	-37
3.83333	-45
3.83700	-53
3.84067	-58
3.84433	-65
3.84800	-72
3.85167	-77
3.85533	-76
3.85900	-70
3.86267	-69
3.86633	-72
3.87000	-74
3.87367	-71
3.87733	-69
3.88100	-66
3.88467	-64
3.88833	-59
3.89200	-53
3.89567	-54
3.89933	-58
3.90300	-63
3.90667	-68
3.91033	-76
3.91400	-83
3.91767	-85
3.92133	-76
3.92500	-59
3.92867	-44
3.93233	-33
3.93600	-33
3.93967	-46
3.94333	-62
3.94700	-76
3.95067	-84
3.95433	-90
3.95800	-95
3.96167	-98
3.96533	-96
3.96900	-92
3.97267	-83
3.97633	-75
3.98000	-71
3.98367	-70
3.98733	-67
3.99100	-59
3.99467	-50
3.99833	-40

[Chromatogram (Ch2)]
Interval(msec)	220
# of Points	1091
Start Time(min)	0.002
End Time(min)	3.998
R.Time (min)	Intensity
0.00167	-0
0.00533	-0
0.00900	-0
0.01267	-0
0.01633	-1
0.02000	-1
0.02367	-2
0.02733	-2
0.03100	-3
0.03467	-4
0.03833	-5
0.04200	-5
0.04567	-6
0.04933	-6
0.05300	-6
0.05667	-6
0.06033	-5
0.06400	-5
0.06767	-5
0.07133	-5
0.07500	-5
0.07867	-5
0.08233	-4
0.08600	-4
0.08967	-4
0.09333	-4
0.09700	-4
0.10067	-4
0.10433	-4
0.10800	-4
0.11167	-4
0.11533	-4
0.11900	-4
0.12267	-4
0.12633	-4
0.13000	-4
0.13367	-5
0.13733	-5
0.14100	-4
0.14467	-4
0.14833	-4
0.15200	-4
0.15567	-3
0.15933	-3
0.16300	-3
0.16667	-3
0.17033	-3
0.17400	-2
0.17767	-2
0.18133	-2
0.18500	-2
0.18867	-2
0.19233	-2
0.19600	-3
0.19967	-3
0.20333	-3
0.20700	-3
0.21067	-3
0.21433	-3
0.21800	-3
0.22167	-3
0.22533	-3
0.22900	-3
0.23267	-3
0.23633	-3
0.24000	-4
0.24367	-4
0.24733	-4
0.25100	-4
0.25467	-4
0.25833	-4
0.26200	-4
0.26567	-4
0.26933	-4
0.27300	-4
0.27667	-4
0.28033	-4
0.28400	-4
0.28767	-4
0.29133	-5
0.29500	-5
0.29867	-6
0.30233	-6
0.30600	-6
0.30967	-6
0.31333	-6
0.31700	-5
0.32067	-5
0.32433	-5
0.32800	-5
0.33167	-4
0.33533	-4
0.33900	-4
0.34267	-4
0.34633	-4
0.35000	-4
0.35367	-4
0.35733	-4
0.36100	-4
0.36467	-4
0.36833	-4
0.37200	-4
0.37567	-3
0.37933	-3
0.38300	-3
0.38667	-3
0.39033	-3
0.39400	-3
0.39767	-3
0.40133	-3
0.40500	-3
0.40867	-3
0.41233	-4
0.41600	-4
0.41967	-4
0.42333	-5
0.42700	-5
0.43067	-5
0.43433	-5
0.43800	-5
0.44167	-5
0.44533	-5
0.44900	-5
0.45267	-5
0.45633	-5
0.46000	-4
0.46367	-4
0.46733	-4
0.47100	-4
0.47467	-4
0.47833	-4
0.48200	-3
0.48567	-3
0.48933	-3
0.49300	-2
0.49667	-2
0.50033	-2
0.50400	-2
0.50767	-2
0.51133	-2
0.51500	-2
0.51867	-2
0.52233	-2
0.52600	-2
0.52967	-2
0.53333	-2
0.53700	-2
0.54067	-3
0.54433	-3
0.54800	-3
0.55167	-4
0.55533	-5
0.55900	-5
0.56267	-5
0.56633	-5
0.57000	-5
0.57367	-5
0.57733	-5
0.58100	-5
0.58467	-5
0.58833	-5
0.59200	-5
0.59567	-5
0.59933	-4
0.60300	-4
0.60667	-4
0.61033	-4
0.61400	-3
0.61767	-3
0.62133	-4
0.62500	-4
0.62867	-4
0.63233	-5
0.63600	-5
0.63967	-6
0.64333	-6
0.64700	-6
0.65067	-6
0.65433	-6
0.65800	-5
0.66167	-5
0.66533	-4
0.66900	-4
0.67267	-3
0.67633	-3
0.68000	-3
0.68367	-3
0.68733	-3
0.69100	-3
0.69467	-3
0.69833	-3
0.70200	-3
0.70567	-2
0.70933	-2
0.71300	-2
0.71667	-1
0.72033	-1
0.72400	-1
0.72767	-1
0.73133	-0
0.73500	0
0.73867	0
0.74233	0
0.74600	0
0.74967	-0
0.75333	-0
0.75700	-1
0.76067	-1
0.76433	-2
0.76800	-2
0.77167	-3
0.77533	-3
0.77900	-3
0.78267	-4
0.78633	-4
0.79000	-5
0.79367	-5
0.79733	-6
0.80100	-6
0.80467	-7
0.80833	-7
0.81200	-7
0.81567	-8
0.81933	-8
0.82300	-8
0.82667	-8
0.83033	-8
0.83400	-8
0.83767	-8
0.84133	-8
0.84500	-8
0.84867	-8
0.85233	-8
0.85600	-7
0.85967	-7
0.86333	-7
0.86700	-7
0.87067	-7
0.87433	-7
0.87800	-7
0.88167	-6
0.88533	-6
0.88900	-6
0.89267	-6
0.89633	-6
0.90000	-5
0.90367	-5
0.90733	-5
0.91100	-5
0.91467	-5
0.91833	-4
0.92200	-4
0.92567	-4
0.92933	-4
0.93300	-3
0.93667	-3
0.94033	-3
0.94400	-3
0.94767	-3
0.95133	-3
0.95500	-3
0.95867	-3
0.96233	-2
0.96600	-2
0.96967	-2
0.97333	-2
0.97700	-2
0.98067	-2
0.98433	-2
0.98800	-2
0.99167	-3
0.99533	-3
0.99900	-4
1.00267	-4
1.00633	-4
1.01000	-4
1.01367	-4
1.01733	-4
1.02100	-3
1.02467	-3
1.02833	-3
1.03200	-3
1.03567	-3
1.03933	-3
1.04300	-2
1.04667	-2
1.05033	-2
1.05400	-2
1.05767	-2
1.06133	-1
1.06500	-1
1.06867	-1
1.07233	-1
1.07600	-1
1.07967	-1
1.08333	-1
1.08700	-2
1.09067	-2
1.09433	-2
1.09800	-2
1.10167	-2
1.10533	-2
1.10900	-2
1.11267	-2
1.11633	-2
1.12000	-2
1.12367	-2
1.12733	-3
1.13100	-3
1.13467	-3
1.13833	-4
1.14200	-5
1.14567	-5
1.14933	-6
1.15300	-6
1.15667	-6
1.16033	-6
1.16400	-6
1.16767	-6
1.17133	-6
1.17500	-6
1.17867	-6
1.18233	-7
1.18600	-7
1.18967	-7
1.19333	-8
1.19700	-8
1.20067	-8
1.20433	-8
1.20800	-8
1.21167	-8
1.21533	-8
1.21900	-8
1.22267	-8
1.22633	-7
1.23000	-7
1.23367	-7
1.23733	-6
1.24100	-6
1.24467	-6
1.24833	-5
1.25200	-5
1.25567	-5
1.25933	-5
1.26300	-5
1.26667	-5
1.27033	-5
1.27400	-5
1.27767	-6
1.28133	-6
1.28500	-6
1.28867	-6
1.29233	-6
1.29600	-6
1.29967	-6
1.30333	-6
1.30700	-6
1.31067	-6
1.31433	-6
1.31800	-6
1.32167	-6
1.32533	-6
1.32900	-6
1.33267	-6
1.33633	-6
1.34000	-5
1.34367	-5
1.34733	-4
1.35100	-4
1.35467	-4
1.35833	-4
1.36200	-4
1.36567	-4
1.36933	-4
1.37300	-4
1.37667	-4
1.38033	-4
1.38400	-4
1.38767	-4
1.39133	-4
1.39500	-4
1.39867	-4
1.40233	-4
1.40600	-4
1.40967	-4
1.41333	-4
1.41700	-4
1.42067	-4
1.42433	-4
1.42800	-4
1.43167	-5
1.43533	-5
1.43900	-5
1.44267	-6
1.44633	-6
1.45000	-7
1.45367	-7
1.45733	-8
1.46100	-8
1.46467	-9
1.46833	-9
1.47200	-9
1.47567	-9
1.47933	-9
1.48300	-9
1.48667	-9
1.49033	-9
1.49400	-9
1.49767	-9
1.50133	-9
1.50500	-8
1.50867	-8
1.51233	-8
1.51600	-8
1.51967	-7
1.52333	-7
1.52700	-7
1.53067	-6
1.53433	-6
1.53800	-5
1.54167	-5
1.54533	-5
1.54900	-4
1.55267	-4
1.55633	-5
1.56000	-5
1.56367	-5
1.56733	-5
1.57100	-5
1.57467	-5
1.57833	-4
1.58200	-4
1.58567	-4
1.58933	-5
1.59300	-5
1.59667	-6
1.60033	-7
1.60400	-8
1.60767	-10
1.61133	-12
1.61500	-14
1.61867	-16
1.62233	-19
1.62600	-21
1.62967	-24
1.63333	-27
1.63700	-30
1.64067	-33
1.64433	-37
1.64800	-40
1.65167	-43
1.65533	-47
1.65900	-51
1.66267	-55
1.66633	-59
1.67000	-64
1.67367	-69
1.67733	-74
1.68100	-79
1.68467	-84
1.68833	-88
1.69200	-92
1.69567	-95
1.69933	-98
1.70300	-101
1.70667	-104
1.71033	-106
1.71400	-108
1.71767	-109
1.72133	-111
1.72500	-112
1.72867	-113
1.73233	-113
1.73600	-113
1.73967	-114
1.74333	-114
1.74700	-113
1.75067	-113
1.75433	-112
1.75800	-111
1.76167	-110
1.76533	-110
1.76900	-110
1.77267	-110
1.77633	-111
1.78000	-111
1.78367	-112
1.78733	-113
1.79100	-114
1.79467	-115
1.79833	-117
1.80200	-118
1.80567	-118
1.80933	-119
1.81300	-119
1.81667	-119
1.82033	-119
1.82400	-118
1.82767	-118
1.83133	-117
1.83500	-116
1.83867	-116
1.84233	-116
1.84600	-116
1.84967	-116
1.85333	-116
1.85700	-117
1.86067	-117
1.86433	-117
1.86800	-118
1.87167	-117
1.87533	-118
1.87900	-118
1.88267	-118
1.88633	-118
1.89000	-118
1.89367	-118
1.89733	-118
1.90100	-117
1.90467	-117
1.90833	-116
1.91200	-115
1.91567	-115
1.91933	-115
1.92300	-115
1.92667	-115
1.93033	-115
1.93400	-115
1.93767	-115
1.94133	-115
1.94500	-115
1.94867	-115
1.95233	-115
1.95600	-114
1.95967	-114
1.96333	-113
1.96700	-113
1.97067	-112
1.97433	-112
1.97800	-111
1.98167	-111
1.98533	-111
1.98900	-111
1.99267	-111
1.99633	-110
2.00000	-110
2.00367	-110
2.00733	-109
2.01100	-108
2.01467	-107
2.01833	-107
2.02200	-106
2.02567	-106
2.02933	-106
2.03300	-107
2.03667	-107
2.04033	-108
2.04400	-108
2.04767	-107
2.05133	-107
2.05500	-106
2.05867	-105
2.06233	-105
2.06600	-104
2.06967	-103
2.07333	-102
2.07700	-102
2.08067	-101
2.08433	-101
2.08800	-101
2.09167	-101
2.09533	-100
2.09900	-100
2.10267	-100
2.10633	-100
2.11000	-100
2.11367	-100
2.11733	-100
2.12100	-100
2.12467	-99
2.12833	-98
2.13200	-97
2.13567	-97
2.13933	-96
2.14300	-96
2.14667	-96
2.15033	-96
2.15400	-96
2.15767	-97
2.16133	-97
2.16500	-96
2.16867	-96
2.17233	-96
2.17600	-96
2.17967	-96
2.18333	-96
2.18700	-96
2.19067	-96
2.19433	-96
2.19800	-96
2.20167	-95
2.20533	-95
2.20900	-94
2.21267	-94
2.21633	-93
2.22000	-93
2.22367	-93
2.22733	-93
2.23100	-93
2.23467	-92
2.23833	-92
2.24200	-91
2.24567	-90
2.24933	-90
2.25300	-90
2.25667	-89
2.26033	-89
2.26400	-88
2.26767	-87
2.27133	-87
2.27500	-86
2.27867	-86
2.28233	-87
2.28600	-87
2.28967	-88
2.29333	-88
2.29700	-88
2.30067	-88
2.30433	-88
2.30800	-87
2.31167	-87
2.31533	-86
2.31900	-85
2.32267	-85
2.32633	-84
2.33000	-83
2.33367	-83
2.33733	-83
2.34100	-82
2.34467	-82
2.34833	-81
2.35200	-80
2.35567	-79
2.35933	-77
2.36300	-76
2.36667	-73
2.37033	-71
2.37400	-68
2.37767	-64
2.38133	-60
2.38500	-56
2.38867	-52
2.39233	-48
2.39600	-43
2.39967	-39
2.40333	-34
2.40700	-31
2.41067	-27
2.41433	-25
2.41800	-22
2.42167	-20
2.42533	-18
2.42900	-15
2.43267	-14
2.43633	-12
2.44000	-11
2.44367	-10
2.44733	-10
2.45100	-10
2.45467	-10
2.45833	-9
2.46200	-9
2.46567	-8
2.46933	-7
2.47300	-6
2.47667	-5
2.48033	-4
2.48400	-3
2.48767	-3
2.49133	-2
2.49500	-2
2.49867	-1
2.50233	-0
2.50600	1
2.50967	2
2.51333	3
2.51700	4
2.52067	5
2.52433	6
2.52800	7
2.53167	7
2.53533	8
2.53900	8
2.54267	9
2.54633	9
2.55000	9
2.55367	10
2.55733	10
2.56100	10
2.56467	10
2.56833	10
2.57200	10
2.57567	10
2.57933	10
2.58300	10
2.58667	10
2.59033	11
2.59400	11
2.59767	12
2.60133	12
2.60500	13
2.60867	13
2.61233	13
2.61600	14
2.61967	14
2.62333	15
2.62700	15
2.63067	15
2.63433	15
2.63800	15
2.64167	15
2.64533	15
2.64900	14
2.65267	15
2.65633	15
2.66000	15
2.66367	15
2.66733	15
2.67100	15
2.67467	15
2.67833	15
2.68200	16
2.68567	16
2.68933	16
2.69300	17
2.69667	17
2.70033	17
2.70400	18
2.70767	18
2.71133	18
2.71500	19
2.71867	19
2.72233	20
2.72600	20
2.72967	21
2.73333	21
2.73700	22
2.74067	22
2.74433	22
2.74800	22
2.75167	22
2.75533	21
2.75900	21
2.76267	20
2.76633	20
2.77000	20
2.77367	20
2.77733	20
2.78100	21
2.78467	21
2.78833	21
2.79200	22
2.79567	22
2.79933	22
2.80300	23
2.80667	23
2.81033	23
2.81400	24
2.81767	24
2.82133	25
2.82500	25
2.82867	25
2.83233	24
2.83600	24
2.83967	23
2.84333	21
2.84700	19
2.85067	15
2.85433	8
2.85800	-1
2.86167	-14
2.86533	-30
2.86900	-51
2.87267	-76
2.87633	-106
2.88000	-139
2.88367	-177
2.88733	-219
2.89100	-264
2.89467	-312
2.89833	-363
2.90200	-415
2.90567	-470
2.90933	-525
2.91300	-580
2.91667	-635
2.92033	-690
2.92400	-744
2.92767	-796
2.93133	-847
2.93500	-899
2.93867	-956
2.94233	-1014
2.94600	-1065
2.94967	-1097
2.95333	-1105
2.95700	-1087
2.96067	-1046
2.96433	-987
2.96800	-915
2.97167	-837
2.97533	-755
2.97900	-675
2.98267	-599
2.98633	-527
2.99000	-461
2.99367	-401
2.99733	-347
3.00100	-300
3.00467	-258
3.00833	-221
3.01200	-188
3.01567	-160
3.01933	-136
3.02300	-115
3.02667	-97
3.03033	-82
3.03400	-68
3.03767	-57
3.04133	-47
3.04500	-38
3.04867	-31
3.05233	-25
3.05600	-20
3.05967	-16
3.06333	-12
3.06700	-9
3.07067	-6
3.07433	-4
3.07800	-2
3.08167	0
3.08533	2
3.08900	3
3.09267	5
3.09633	6
3.10000	7
3.10367	7
3.10733	8
3.11100	9
3.11467	9
3.11833	10
3.12200	11
3.12567	11
3.12933	12
3.13300	12
3.13667	13
3.14033	13
3.14400	14
3.14767	14
3.15133	14
3.15500	15
3.15867	15
3.16233	15
3.16600	15
3.16967	15
3.17333	16
3.17700	16
3.18067	16
3.18433	16
3.18800	17
3.19167	17
3.19533	17
3.19900	17
3.20267	17
3.20633	17
3.21000	17
3.21367	17
3.21733	18
3.22100	18
3.22467	18
3.22833	18
3.23200	18
3.23567	18
3.23933	19
3.24300	19
3.24667	19
3.25033	19
3.25400	19
3.25767	19
3.26133	19
3.26500	20
3.26867	20
3.27233	20
3.27600	20
3.27967	20
3.28333	19
3.28700	19
3.29067	19
3.29433	19
3.29800	19
3.30167	19
3.30533	19
3.30900	19
3.31267	18
3.31633	18
3.32000	18
3.32367	19
3.32733	19
3.33100	19
3.33467	20
3.33833	20
3.34200	20
3.34567	20
3.34933	20
3.35300	20
3.35667	20
3.36033	20
3.36400	20
3.36767	20
3.37133	20
3.37500	20
3.37867	21
3.38233	21
3.38600	21
3.38967	22
3.39333	22
3.39700	23
3.40067	23
3.40433	23
3.40800	24
3.41167	24
3.41533	24
3.41900	24
3.42267	24
3.42633	24
3.43000	24
3.43367	24
3.43733	24
3.44100	24
3.44467	24
3.44833	24
3.45200	24
3.45567	23
3.45933	23
3.46300	23
3.46667	23
3.47033	23
3.47400	23
3.47767	23
3.48133	23
3.48500	23
3.48867	23
3.49233	23
3.49600	23
3.49967	24
3.50333	24
3.50700	24
3.51067	24
3.51433	24
3.51800	24
3.52167	24
3.52533	24
3.52900	24
3.53267	24
3.53633	23
3.54000	23
3.54367	23
3.54733	23
3.55100	23
3.55467	23
3.55833	23
3.56200	23
3.56567	23
3.56933	23
3.57300	23
3.57667	23
3.58033	23
3.58400	23
3.58767	23
3.59133	23
3.59500	22
3.59867	22
3.60233	22
3.60600	22
3.60967	22
3.61333	22
3.61700	21
3.62067	21
3.62433	21
3.62800	21
3.63167	22
3.63533	22
3.63900	22
3.64267	22
3.64633	22
3.65000	22
3.65367	23
3.65733	23
3.66100	23
3.66467	23
3.66833	24
3.67200	24
3.67567	24
3.67933	24
3.68300	24
3.68667	24
3.69033	24
3.69400	24
3.69767	24
3.70133	24
3.70500	24
3.70867	24
3.71233	24
3.71600	24
3.71967	24
3.72333	24
3.72700	24
3.73067	24
3.73433	24
3.73800	24
3.74167	23
3.74533	23
3.74900	23
3.75267	23
3.75633	23
3.76000	23
3.76367	23
3.76733	22
3.77100	22
3.77467	22
3.77833	22
3.78200	22
3.78567	22
3.78933	22
3.79300	22
3.79667	22
3.80033	22
3.80400	22
3.80767	22
3.81133	22
3.81500	22
3.81867	22
3.82233	22
3.82600	22
3.82967	21
3.83333	21
3.83700	21
3.84067	21
3.84433	21
3.84800	21
3.85167	21
3.85533	21
3.85900	21
3.86267	21
3.86633	21
3.87000	22
3.87367	22
3.87733	22
3.88100	22
3.88467	22
3.88833	23
3.89200	23
3.89567	23
3.89933	22
3.90300	22
3.90667	22
3.91033	22
3.91400	23
3.91767	23
3.92133	23
3.92500	23
3.92867	23
3.93233	23
3.93600	23
3.93967	23
3.94333	23
3.94700	23
3.95067	23
3.95433	24
3.95800	24
3.96167	24
3.96533	24
3.96900	24
3.97267	24
3.97633	24
3.98000	24
3.98367	24
3.98733	24
3.99100	24
3.99467	24
3.99833	24

[Chromatogram (Ch3)]
Interval(msec)	220
# of Points	1091
Start Time(min)	0.002
End Time(min)	3.998
R.Time (min)	Intensity
0.00167	1
0.00533	1
0.00900	1
0.01267	0
0.01633	-1
0.02000	-3
0.02367	-4
0.02733	-5
0.03100	-3
0.03467	-1
0.03833	0
0.04200	1
0.04567	-1
0.04933	-3
0.05300	-2
0.05667	-2
0.06033	-2
0.06400	-0
0.06767	1
0.07133	1
0.07500	0
0.07867	0
0.08233	1
0.08600	2
0.08967	4
0.09333	5
0.09700	5
0.10067	3
0.10433	3
0.10800	3
0.11167	2
0.11533	1
0.11900	1
0.12267	1
0.12633	0
0.13000	-2
0.13367	-2
0.13733	-0
0.14100	1
0.14467	2
0.14833	1
0.15200	-0
0.15567	-2
0.15933	-3
0.16300	-3
0.16667	-4
0.17033	-3
0.17400	-1
0.17767	1
0.18133	0
0.18500	-1
0.18867	-0
0.19233	0
0.19600	-0
0.19967	-1
0.20333	0
0.20700	-1
0.21067	-3
0.21433	-2
0.21800	-2
0.22167	-4
0.22533	-6
0.22900	-7
0.23267	-4
0.23633	-2
0.24000	-4
0.24367	-6
0.24733	-6
0.25100	-6
0.25467	-4
0.25833	-5
0.26200	-8
0.26567	-9
0.26933	-8
0.27300	-7
0.27667	-7
0.28033	-7
0.28400	-6
0.28767	-5
0.29133	-3
0.29500	-2
0.29867	-3
0.30233	-2
0.30600	-3
0.30967	-3
0.31333	-1
0.31700	-1
0.32067	-2
0.32433	-4
0.32800	-4
0.33167	-2
0.33533	-1
0.33900	-1
0.34267	-1
0.34633	-0
0.35000	1
0.35367	1
0.35733	2
0.36100	1
0.36467	-0
0.36833	-1
0.37200	-0
0.37567	1
0.37933	2
0.38300	3
0.38667	4
0.39033	4
0.39400	3
0.39767	1
0.40133	-1
0.40500	-2
0.40867	-4
0.41233	-2
0.41600	2
0.41967	4
0.42333	4
0.42700	4
0.43067	4
0.43433	5
0.43800	4
0.44167	3
0.44533	4
0.44900	4
0.45267	3
0.45633	2
0.46000	1
0.46367	2
0.46733	4
0.47100	6
0.47467	5
0.47833	5
0.48200	5
0.48567	4
0.48933	3
0.49300	-0
0.49667	-2
0.50033	-1
0.50400	-1
0.50767	-1
0.51133	-0
0.51500	-0
0.51867	-1
0.52233	-1
0.52600	0
0.52967	0
0.53333	-0
0.53700	-0
0.54067	1
0.54433	1
0.54800	-1
0.55167	-2
0.55533	-3
0.55900	-3
0.56267	-2
0.56633	-4
0.57000	-5
0.57367	-5
0.57733	-3
0.58100	-2
0.58467	-1
0.58833	-1
0.59200	-1
0.59567	-2
0.59933	-2
0.60300	-4
0.60667	-5
0.61033	-4
0.61400	-1
0.61767	2
0.62133	1
0.62500	1
0.62867	-1
0.63233	-1
0.63600	-1
0.63967	1
0.64333	2
0.64700	2
0.65067	2
0.65433	2
0.65800	2
0.66167	4
0.66533	4
0.66900	5
0.67267	6
0.67633	7
0.68000	5
0.68367	4
0.68733	2
0.69100	3
0.69467	4
0.69833	4
0.70200	4
0.70567	4
0.70933	3
0.71300	3
0.71667	3
0.72033	2
0.72400	2
0.72767	1
0.73133	0
0.73500	0
0.73867	0
0.74233	-1
0.74600	-1
0.74967	1
0.75333	2
0.75700	1
0.76067	1
0.76433	2
0.76800	2
0.77167	3
0.77533	3
0.77900	4
0.78267	3
0.78633	2
0.79000	1
0.79367	1
0.79733	2
0.80100	1
0.80467	-0
0.80833	0
0.81200	2
0.81567	1
0.81933	1
0.82300	1
0.82667	1
0.83033	2
0.83400	3
0.83767	4
0.84133	6
0.84500	5
0.84867	7
0.85233	8
0.85600	8
0.85967	8
0.86333	8
0.86700	8
0.87067	7
0.87433	7
0.87800	8
0.88167	8
0.88533	9
0.88900	9
0.89267	9
0.89633	8
0.90000	8
0.90367	6
0.90733	3
0.91100	2
0.91467	2
0.91833	1
0.92200	0
0.92567	2
0.92933	5
0.93300	6
0.93667	6
0.94033	7
0.94400	5
0.94767	5
0.95133	5
0.95500	5
0.95867	6
0.96233	6
0.96600	8
0.96967	10
0.97333	10
0.97700	9
0.98067	8
0.98433	10
0.98800	11
0.99167	10
0.99533	11
0.99900	11
1.00267	10
1.00633	12
1.01000	15
1.01367	14
1.01733	10
1.02100	8
1.02467	8
1.02833	9
1.03200	8
1.03567	8
1.03933	6
1.04300	5
1.04667	5
1.05033	7
1.05400	11
1.05767	13
1.06133	13
1.06500	14
1.06867	14
1.07233	15
1.07600	15
1.07967	18
1.08333	19
1.08700	17
1.09067	13
1.09433	11
1.09800	10
1.10167	9
1.10533	8
1.10900	6
1.11267	7
1.11633	7
1.12000	8
1.12367	9
1.12733	9
1.13100	7
1.13467	6
1.13833	6
1.14200	8
1.14567	11
1.14933	10
1.15300	8
1.15667	5
1.16033	5
1.16400	6
1.16767	7
1.17133	7
1.17500	7
1.17867	9
1.18233	10
1.18600	10
1.18967	10
1.19333	10
1.19700	12
1.20067	13
1.20433	13
1.20800	13
1.21167	13
1.21533	13
1.21900	13
1.22267	12
1.22633	11
1.23000	9
1.23367	7
1.23733	7
1.24100	9
1.24467	12
1.24833	13
1.25200	15
1.25567	15
1.25933	14
1.26300	14
1.26667	12
1.27033	11
1.27400	12
1.27767	13
1.28133	13
1.28500	11
1.28867	10
1.29233	11
1.29600	10
1.29967	9
1.30333	10
1.30700	12
1.31067	14
1.31433	14
1.31800	14
1.32167	13
1.32533	11
1.32900	11
1.33267	11
1.33633	14
1.34000	14
1.34367	15
1.34733	14
1.35100	15
1.35467	17
1.35833	14
1.36200	12
1.36567	10
1.36933	11
1.37300	11
1.37667	10
1.38033	11
1.38400	10
1.38767	8
1.39133	8
1.39500	9
1.39867	8
1.40233	8
1.40600	11
1.40967	13
1.41333	14
1.41700	14
1.42067	14
1.42433	13
1.42800	13
1.43167	12
1.43533	12
1.43900	14
1.44267	13
1.44633	11
1.45000	10
1.45367	11
1.45733	12
1.46100	13
1.46467	15
1.46833	16
1.47200	16
1.47567	17
1.47933	15
1.48300	14
1.48667	14
1.49033	15
1.49400	16
1.49767	16
1.50133	17
1.50500	18
1.50867	15
1.51233	14
1.51600	12
1.51967	10
1.52333	11
1.52700	14
1.53067	16
1.53433	18
1.53800	18
1.54167	18
1.54533	15
1.54900	14
1.55267	14
1.55633	14
1.56000	15
1.56367	16
1.56733	17
1.57100	17
1.57467	18
1.57833	19
1.58200	20
1.58567	21
1.58933	22
1.59300	22
1.59667	23
1.60033	21
1.60400	20
1.60767	21
1.61133	22
1.61500	22
1.61867	23
1.62233	23
1.62600	23
1.62967	21
1.63333	21
1.63700	22
1.64067	21
1.64433	19
1.64800	18
1.65167	19
1.65533	19
1.65900	20
1.66267	21
1.66633	21
1.67000	20
1.67367	22
1.67733	22
1.68100	24
1.68467	26
1.68833	29
1.69200	30
1.69567	29
1.69933	29
1.70300	28
1.70667	28
1.71033	29
1.71400	29
1.71767	27
1.72133	27
1.72500	29
1.72867	30
1.73233	30
1.73600	31
1.73967	30
1.74333	31
1.74700	32
1.75067	33
1.75433	33
1.75800	34
1.76167	36
1.76533	38
1.76900	40
1.77267	40
1.77633	40
1.78000	41
1.78367	40
1.78733	40
1.79100	41
1.79467	43
1.79833	42
1.80200	41
1.80567	41
1.80933	40
1.81300	39
1.81667	42
1.82033	44
1.82400	44
1.82767	42
1.83133	39
1.83500	38
1.83867	39
1.84233	41
1.84600	44
1.84967	46
1.85333	46
1.85700	47
1.86067	49
1.86433	49
1.86800	49
1.87167	49
1.87533	49
1.87900	51
1.88267	52
1.88633	52
1.89000	50
1.89367	49
1.89733	49
1.90100	50
1.90467	51
1.90833	51
1.91200	51
1.91567	51
1.91933	53
1.92300	53
1.92667	54
1.93033	56
1.93400	60
1.93767	64
1.94133	66
1.94500	66
1.94867	65
1.95233	64
1.95600	63
1.95967	66
1.96333	69
1.96700	71
1.97067	74
1.97433	76
1.97800	77
1.98167	76
1.98533	78
1.98900	80
1.99267	82
1.99633	84
2.00000	85
2.00367	84
2.00733	83
2.01100	83
2.01467	84
2.01833	84
2.02200	84
2.02567	85
2.02933	88
2.03300	92
2.03667	94
2.04033	96
2.04400	98
2.04767	99
2.05133	99
2.05500	99
2.05867	97
2.06233	96
2.06600	98
2.06967	99
2.07333	98
2.07700	99
2.08067	99
2.08433	101
2.08800	104
2.09167	106
2.09533	105
2.09900	105
2.10267	103
2.10633	103
2.11000	105
2.11367	108
2.11733	111
2.12100	112
2.12467	113
2.12833	114
2.13200	116
2.13567	116
2.13933	115
2.14300	116
2.14667	118
2.15033	122
2.15400	126
2.15767	128
2.16133	129
2.16500	128
2.16867	127
2.17233	129
2.17600	131
2.17967	133
2.18333	135
2.18700	138
2.19067	140
2.19433	142
2.19800	141
2.20167	141
2.20533	140
2.20900	140
2.21267	141
2.21633	142
2.22000	142
2.22367	142
2.22733	143
2.23100	146
2.23467	147
2.23833	147
2.24200	146
2.24567	146
2.24933	148
2.25300	150
2.25667	151
2.26033	150
2.26400	148
2.26767	148
2.27133	149
2.27500	152
2.27867	156
2.28233	158
2.28600	159
2.28967	161
2.29333	162
2.29700	161
2.30067	160
2.30433	160
2.30800	160
2.31167	162
2.31533	165
2.31900	167
2.32267	169
2.32633	167
2.33000	166
2.33367	167
2.33733	169
2.34100	170
2.34467	172
2.34833	175
2.35200	178
2.35567	180
2.35933	180
2.36300	180
2.36667	180
2.37033	181
2.37400	181
2.37767	181
2.38133	182
2.38500	180
2.38867	179
2.39233	178
2.39600	179
2.39967	180
2.40333	180
2.40700	182
2.41067	185
2.41433	191
2.41800	194
2.42167	194
2.42533	194
2.42900	192
2.43267	191
2.43633	192
2.44000	197
2.44367	244
2.44733	359
2.45100	483
2.45467	586
2.45833	640
2.46200	643
2.46567	625
2.46933	609
2.47300	603
2.47667	595
2.48033	577
2.48400	544
2.48767	505
2.49133	469
2.49500	439
2.49867	416
2.50233	403
2.50600	397
2.50967	399
2.51333	409
2.51700	421
2.52067	434
2.52433	440
2.52800	436
2.53167	423
2.53533	405
2.53900	383
2.54267	358
2.54633	335
2.55000	316
2.55367	302
2.55733	291
2.56100	284
2.56467	281
2.56833	279
2.57200	277
2.57567	276
2.57933	277
2.58300	276
2.58667	276
2.59033	275
2.59400	278
2.59767	282
2.60133	287
2.60500	293
2.60867	295
2.61233	291
2.61600	284
2.61967	275
2.62333	265
2.62700	253
2.63067	241
2.63433	230
2.63800	219
2.64167	207
2.64533	196
2.64900	186
2.65267	175
2.65633	166
2.66000	157
2.66367	151
2.66733	146
2.67100	142
2.67467	139
2.67833	137
2.68200	138
2.68567	141
2.68933	144
2.69300	146
2.69667	149
2.70033	152
2.70400	154
2.70767	156
2.71133	159
2.71500	163
2.71867	165
2.72233	168
2.72600	170
2.72967	170
2.73333	170
2.73700	173
2.74067	177
2.74433	182
2.74800	186
2.75167	190
2.75533	194
2.75900	196
2.76267	197
2.76633	197
2.77000	198
2.77367	200
2.77733	202
2.78100	208
2.78467	213
2.78833	215
2.79200	215
2.79567	219
2.79933	224
2.80300	227
2.80667	230
2.81033	234
2.81400	239
2.81767	244
2.82133	253
2.82500	270
2.82867	299
2.83233	353
2.83600	453
2.83967	620
2.84333	875
2.84700	1231
2.85067	1684
2.85433	2218
2.85800	2800
2.86167	3381
2.86533	3920
2.86900	4369
2.87267	4694
2.87633	4880
2.88000	4924
2.88367	4839
2.88733	4651
2.89100	4389
2.89467	4076
2.89833	3737
2.90200	3392
2.90567	3057
2.90933	2740
2.91300	2446
2.91667	2175
2.92033	1928
2.92400	1707
2.92767	1512
2.93133	1341
2.93500	1192
2.93867	1062
2.94233	946
2.94600	845
2.94967	758
2.95333	686
2.95700	624
2.96067	569
2.96433	521
2.96800	479
2.97167	442
2.97533	412
2.97900	386
2.98267	361
2.98633	340
2.99000	323
2.99367	310
2.99733	297
3.00100	286
3.00467	277
3.00833	269
3.01200	263
3.01567	258
3.01933	252
3.02300	247
3.02667	245
3.03033	241
3.03400	237
3.03767	234
3.04133	232
3.04500	229
3.04867	228
3.05233	226
3.05600	226
3.05967	226
3.06333	225
3.06700	226
3.07067	227
3.07433	229
3.07800	228
3.08167	227
3.08533	228
3.08900	229
3.09267	230
3.09633	229
3.10000	229
3.10367	229
3.10733	230
3.11100	232
3.11467	234
3.11833	233
3.12200	231
3.12567	231
3.12933	231
3.13300	231
3.13667	234
3.14033	235
3.14400	235
3.14767	234
3.15133	234
3.15500	236
3.15867	237
3.16233	238
3.16600	240
3.16967	241
3.17333	241
3.17700	242
3.18067	241
3.18433	241
3.18800	242
3.19167	243
3.19533	244
3.19900	246
3.20267	249
3.20633	250
3.21000	251
3.21367	252
3.21733	253
3.22100	255
3.22467	257
3.22833	257
3.23200	257
3.23567	260
3.23933	263
3.24300	269
3.24667	274
3.25033	277
3.25400	278
3.25767	276
3.26133	276
3.26500	279
3.26867	282
3.27233	284
3.27600	285
3.27967	287
3.28333	290
3.28700	292
3.29067	293
3.29433	294
3.29800	294
3.30167	294
3.30533	296
3.30900	300
3.31267	304
3.31633	307
3.32000	307
3.32367	308
3.32733	311
3.33100	314
3.33467	316
3.33833	318
3.34200	318
3.34567	318
3.34933	318
3.35300	319
3.35667	319
3.36033	319
3.36400	319
3.36767	320
3.37133	323
3.37500	326
3.37867	328
3.38233	331
3.38600	331
3.38967	332
3.39333	330
3.39700	329
3.40067	329
3.40433	331
3.40800	333
3.41167	332
3.41533	328
3.41900	328
3.42267	329
3.42633	331
3.43000	333
3.43367	334
3.43733	335
3.44100	334
3.44467	333
3.44833	331
3.45200	328
3.45567	327
3.45933	328
3.46300	329
3.46667	333
3.47033	336
3.47400	338
3.47767	337
3.48133	335
3.48500	335
3.48867	334
3.49233	332
3.49600	331
3.49967	330
3.50333	330
3.50700	331
3.51067	330
3.51433	330
3.51800	329
3.52167	330
3.52533	331
3.52900	330
3.53267	327
3.53633	325
3.54000	324
3.54367	323
3.54733	323
3.55100	325
3.55467	326
3.55833	326
3.56200	324
3.56567	321
3.56933	320
3.57300	319
3.57667	317
3.58033	315
3.58400	314
3.58767	315
3.59133	316
3.59500	317
3.59867	317
3.60233	318
3.60600	320
3.60967	322
3.61333	324
3.61700	323
3.62067	321
3.62433	319
3.62800	320
3.63167	319
3.63533	317
3.63900	314
3.64267	311
3.64633	306
3.65000	301
3.65367	300
3.65733	306
3.66100	314
3.66467	325
3.66833	338
3.67200	354
3.67567	371
3.67933	386
3.68300	400
3.68667	415
3.69033	430
3.69400	446
3.69767	463
3.70133	481
3.70500	498
3.70867	514
3.71233	529
3.71600	542
3.71967	557
3.72333	569
3.72700	579
3.73067	590
3.73433	597
3.73800	605
3.74167	612
3.74533	617
3.74900	624
3.75267	631
3.75633	633
3.76000	633
3.76367	634
3.76733	635
3.77100	638
3.77467	640
3.77833	640
3.78200	639
3.78567	639
3.78933	638
3.79300	640
3.79667	642
3.80033	644
3.80400	644
3.80767	645
3.81133	647
3.81500	648
3.81867	649
3.82233	649
3.82600	649
3.82967	650
3.83333	649
3.83700	646
3.84067	643
3.84433	639
3.84800	636
3.85167	634
3.85533	634
3.85900	633
3.86267	630
3.86633	628
3.87000	627
3.87367	628
3.87733	628
3.88100	629
3.88467	628
3.88833	628
3.89200	627
3.89567	624
3.89933	623
3.90300	621
3.90667	620
3.91033	618
3.91400	618
3.91767	617
3.92133	614
3.92500	612
3.92867	613
3.93233	613
3.93600	612
3.93967	612
3.94333	612
3.94700	610
3.95067	606
3.95433	604
3.95800	603
3.96167	602
3.96533	600
3.96900	600
3.97267	599
3.97633	598
3.98000	599
3.98367	599
3.98733	595
3.99100	591
3.99467	587
3.99833	585

[Status Trace (Column Oven Temperature)]
Interval(msec)	1000
# of Points	240
Start Time(min)	0.013
End Time(min)	3.996
Intensity Units	
Intensity Multiplier	1
R.Time (min)	Intensity
0.01297	34.99
0.02963	35.00
0.04630	35.02
0.06297	35.02
0.07963	35.00
0.09630	35.01
0.11297	35.02
0.12963	35.02
0.14630	35.01
0.16297	35.01
0.17963	35.00
0.19630	35.00
0.21297	35.00
0.22963	35.00
0.24630	35.00
0.26297	35.00
0.27963	35.01
0.29630	35.02
0.31297	35.02
0.32963	35.02
0.34630	35.02
0.36297	35.02
0.37963	35.00
0.39630	35.00
0.41297	35.02
0.42963	35.02
0.44630	35.03
0.46297	35.02
0.47963	35.01
0.49630	34.99
0.51297	34.97
0.52963	34.97
0.54630	34.98
0.56297	34.99
0.57963	34.99
0.59630	34.99
0.61297	35.00
0.62963	35.02
0.64630	35.02
0.66297	35.01
0.67963	35.00
0.69630	34.99
0.71297	34.97
0.72963	34.96
0.74630	34.95
0.76297	34.96
0.77963	34.97
0.79630	34.98
0.81297	35.01
0.82963	35.02
0.84630	35.03
0.86297	35.03
0.87963	35.03
0.89630	35.03
0.91297	35.01
0.92963	35.00
0.94630	35.00
0.96297	35.00
0.97963	35.00
0.99630	35.00
1.01297	34.99
1.02963	34.98
1.04630	34.96
1.06297	34.96
1.07963	34.96
1.09630	34.95
1.11297	34.94
1.12963	34.94
1.14630	34.95
1.16297	34.97
1.17963	34.99
1.19630	35.00
1.21297	35.00
1.22963	34.99
1.24630	34.99
1.26297	34.99
1.27963	35.00
1.29630	35.00
1.31297	35.00
1.32963	35.00
1.34630	34.99
1.36297	34.98
1.37963	34.97
1.39630	34.97
1.41297	34.97
1.42963	34.98
1.44630	34.99
1.46297	35.01
1.47963	35.01
1.49630	35.02
1.51297	35.02
1.52963	35.01
1.54630	35.00
1.56297	34.99
1.57963	34.98
1.59630	35.01
1.61297	35.10
1.62963	35.24
1.64630	35.44
1.66297	35.71
1.67963	36.07
1.69630	36.43
1.71297	36.79
1.72963	37.13
1.74630	37.45
1.76297	37.76
1.77963	38.09
1.79630	38.44
1.81297	38.78
1.82963	39.10
1.84630	39.42
1.86297	39.75
1.87963	40.09
1.89630	40.41
1.91297	40.73
1.92963	41.07
1.94630	41.40
1.96297	41.72
1.97963	42.05
1.99630	42.38
2.01297	42.68
2.02963	43.02
2.04630	43.34
2.06297	43.66
2.07963	44.01
2.09630	44.33
2.11297	44.66
2.12963	44.96
2.14630	45.30
2.16297	45.61
2.17963	45.94
2.19630	46.27
2.21297	46.60
2.22963	46.93
2.24630	47.26
2.26297	47.58
2.27963	47.94
2.29630	48.28
2.31297	48.62
2.32963	48.95
2.34630	49.26
2.36297	49.51
2.37963	49.64
2.39630	49.66
2.41297	49.67
2.42963	49.67
2.44630	49.68
2.46297	49.69
2.47963	49.71
2.49630	49.73
2.51297	49.74
2.52963	49.75
2.54630	49.77
2.56297	49.78
2.57963	49.80
2.59630	49.81
2.61297	49.81
2.62963	49.81
2.64630	49.82
2.66297	49.83
2.67963	49.85
2.69630	49.87
2.71297	49.86
2.72963	49.84
2.74630	49.85
2.76297	49.87
2.77963	49.86
2.79630	49.86
2.81297	49.85
2.82963	49.86
2.84630	49.89
2.86297	49.90
2.87963	49.91
2.89630	49.92
2.91297	49.92
2.92963	49.93
2.94630	49.93
2.96297	49.93
2.97963	49.95
2.99630	49.96
3.01297	49.97
3.02963	49.98
3.04630	49.99
3.06297	50.00
3.07963	50.01
3.09630	50.01
3.11297	50.02
3.12963	50.03
3.14630	50.03
3.16297	50.03
3.17963	50.03
3.19630	50.04
3.21297	50.05
3.22963	50.05
3.24630	50.06
3.26297	50.06
3.27963	50.06
3.29630	50.08
3.31297	50.10
3.32963	50.10
3.34630	50.10
3.36297	50.11
3.37963	50.10
3.39630	50.08
3.41297	50.08
3.42963	50.07
3.44630	50.08
3.46297	50.08
3.47963	50.08
3.49630	50.07
3.51297	50.07
3.52963	50.06
3.54630	50.06
3.56297	50.07
3.57963	50.06
3.59630	50.07
3.61297	50.08
3.62963	50.08
3.64630	50.08
3.66297	50.07
3.67963	50.05
3.69630	50.04
3.71297	50.04
3.72963	50.04
3.74630	50.05
3.76297	50.05
3.77963	50.05
3.79630	50.06
3.81297	50.07
3.82963	50.07
3.84630	50.08
3.86297	50.08
3.87963	50.07
3.89630	50.07
3.91297	50.06
3.92963	50.06
3.94630	50.05
3.96297	50.05
3.97963	50.04
3.99630	50.04

[Status Trace (Injection Unit Temperature)]
Interval(msec)	1000
# of Points	240
Start Time(min)	0.013
End Time(min)	3.996
Intensity Units	
Intensity Multiplier	1
R.Time (min)	Intensity
0.01297	99.97
0.02963	99.98
0.04630	99.97
0.06297	99.98
0.07963	99.97
0.09630	99.98
0.11297	99.98
0.12963	99.97
0.14630	99.98
0.16297	99.98
0.17963	99.98
0.19630	99.97
0.21297	99.98
0.22963	99.98
0.24630	99.98
0.26297	99.98
0.27963	99.98
0.29630	99.97
0.31297	99.98
0.32963	99.98
0.34630	99.98
0.36297	99.98
0.37963	99.98
0.39630	99.97
0.41297	99.97
0.42963	99.98
0.44630	99.97
0.46297	99.98
0.47963	99.97
0.49630	99.98
0.51297	99.97
0.52963	99.98
0.54630	99.98
0.56297	99.98
0.57963	99.97
0.59630	99.98
0.61297	99.98
0.62963	99.98
0.64630	99.98
0.66297	99.98
0.67963	99.98
0.69630	99.96
0.71297	99.98
0.72963	99.98
0.74630	99.98
0.76297	99.98
0.77963	99.98
0.79630	99.98
0.81297	99.98
0.82963	99.98
0.84630	99.98
0.86297	99.98
0.87963	99.98
0.89630	99.98
0.91297	99.98
0.92963	99.98
0.94630	99.98
0.96297	99.98
0.97963	99.98
0.99630	99.98
1.01297	99.98
1.02963	99.98
1.04630	99.98
1.06297	99.98
1.07963	99.98
1.09630	99.98
1.11297	99.98
1.12963	99.98
1.14630	99.97
1.16297	99.98
1.17963	99.98
1.19630	99.97
1.21297	99.98
1.22963	99.97
1.24630	99.97
1.26297	99.97
1.27963	99.98
1.29630	99.97
1.31297	99.98
1.32963	99.98
1.34630	99.98
1.36297	99.98
1.37963	99.98
1.39630	99.98
1.41297	99.98
1.42963	99.98
1.44630	99.98
1.46297	99.98
1.47963	99.98
1.49630	99.98
1.51297	99.98
1.52963	99.97
1.54630	99.99
1.56297	99.99
1.57963	99.99
1.59630	99.98
1.61297	99.98
1.62963	99.99
1.64630	99.98
1.66297	99.98
1.67963	99.99
1.69630	99.99
1.71297	99.99
1.72963	99.99
1.74630	99.99
1.76297	99.99
1.77963	99.99
1.79630	99.98
1.81297	99.99
1.82963	99.98
1.84630	99.98
1.86297	99.98
1.87963	99.99
1.89630	99.98
1.91297	99.99
1.92963	99.98
1.94630	99.98
1.96297	99.98
1.97963	99.98
1.99630	99.98
2.01297	99.98
2.02963	99.98
2.04630	99.98
2.06297	99.97
2.07963	99.97
2.09630	99.97
2.11297	99.97
2.12963	99.98
2.14630	99.97
2.16297	99.97
2.17963	99.97
2.19630	99.97
2.21297	99.97
2.22963	99.96
2.24630	99.97
2.26297	99.97
2.27963	99.96
2.29630	99.97
2.31297	99.97
2.32963	99.96
2.34630	99.96
2.36297	99.97
2.37963	99.97
2.39630	99.96
2.41297	99.96
2.42963	99.96
2.44630	99.96
2.46297	99.96
2.47963	99.97
2.49630	99.96
2.51297	99.96
2.52963	99.96
2.54630	99.97
2.56297	99.96
2.57963	99.97
2.59630	99.97
2.61297	99.97
2.62963	99.97
2.64630	99.97
2.66297	99.98
2.67963	99.97
2.69630	99.98
2.71297	99.97
2.72963	99.97
2.74630	99.98
2.76297	99.98
2.77963	99.98
2.79630	99.99
2.81297	99.98
2.82963	99.99
2.84630	99.99
2.86297	99.99
2.87963	100.00
2.89630	99.99
2.91297	100.00
2.92963	100.00
2.94630	100.00
2.96297	100.00
2.97963	100.00
2.99630	100.00
3.01297	100.01
3.02963	100.01
3.04630	100.01
3.06297	100.01
3.07963	100.01
3.09630	100.02
3.11297	100.01
3.12963	100.02
3.14630	100.02
3.16297	100.01
3.17963	100.02
3.19630	100.02
3.21297	100.02
3.22963	100.02
3.24630	100.02
3.26297	100.03
3.27963	100.02
3.29630	100.03
3.31297	100.03
3.32963	100.03
3.34630	100.03
3.36297	100.03
3.37963	100.03
3.39630	100.03
3.41297	100.03
3.42963	100.03
3.44630	100.04
3.46297	100.03
3.47963	100.03
3.49630	100.03
3.51297	100.03
3.52963	100.04
3.54630	100.03
3.56297	100.03
3.57963	100.03
3.59630	100.04
3.61297	100.04
3.62963	100.04
3.64630	100.04
3.66297	100.04
3.67963	100.04
3.69630	100.04
3.71297	100.04
3.72963	100.04
3.74630	100.05
3.76297	100.04
3.77963	100.04
3.79630	100.04
3.81297	100.04
3.82963	100.04
3.84630	100.05
3.86297	100.05
3.87963	100.04
3.89630	100.04
3.91297	100.05
3.92963	100.05
3.94630	100.04
3.96297	100.05
3.97963	100.05
3.99630	100.05

[Status Trace (Carrier Gas Pressure)]
Interval(msec)	1000
# of Points	240
Start Time(min)	0.013
End Time(min)	3.996
Intensity Units	
Intensity Multiplier	1
R.Time (min)	Intensity
0.01297	57.95
0.02963	55.26
0.04630	57.76
0.06297	59.77
0.07963	58.76
0.09630	57.99
0.11297	57.99
0.12963	58.01
0.14630	58.01
0.16297	58.00
0.17963	58.00
0.19630	58.00
0.21297	58.00
0.22963	58.00
0.24630	58.00
0.26297	58.00
0.27963	58.00
0.29630	58.00
0.31297	58.00
0.32963	58.00
0.34630	58.00
0.36297	58.00
0.37963	58.00
0.39630	58.00
0.41297	58.00
0.42963	58.00
0.44630	58.00
0.46297	58.00
0.47963	58.00
0.49630	58.00
0.51297	58.00
0.52963	58.00
0.54630	58.00
0.56297	58.00
0.57963	58.00
0.59630	58.00
0.61297	58.00
0.62963	58.00
0.64630	58.00
0.66297	58.00
0.67963	58.00
0.69630	58.00
0.71297	58.00
0.72963	58.00
0.74630	58.00
0.76297	58.00
0.77963	58.00
0.79630	58.00
0.81297	58.00
0.82963	58.00
0.84630	58.00
0.86297	58.00
0.87963	58.00
0.89630	58.00
0.91297	58.00
0.92963	58.00
0.94630	58.00
0.96297	58.00
0.97963	58.00
0.99630	58.00
1.01297	58.00
1.02963	58.00
1.04630	58.00
1.06297	58.00
1.07963	58.00
1.09630	58.00
1.11297	58.00
1.12963	58.00
1.14630	58.00
1.16297	58.00
1.17963	58.00
1.19630	58.00
1.21297	58.00
1.22963	58.00
1.24630	58.00
1.26297	58.00
1.27963	58.00
1.29630	58.00
1.31297	58.00
1.32963	58.00
1.34630	58.00
1.36297	58.00
1.37963	58.00
1.39630	58.00
1.41297	58.00
1.42963	58.00
1.44630	58.00
1.46297	58.00
1.47963	58.00
1.49630	58.00
1.51297	58.00
1.52963	58.00
1.54630	58.00
1.56297	58.00
1.57963	58.00
1.59630	58.00
1.61297	58.00
1.62963	58.00
1.64630	58.00
1.66297	58.00
1.67963	58.01
1.69630	58.00
1.71297	58.00
1.72963	58.00
1.74630	58.00
1.76297	58.00
1.77963	58.00
1.79630	58.00
1.81297	58.00
1.82963	58.00
1.84630	58.00
1.86297	58.00
1.87963	58.00
1.89630	58.00
1.91297	58.00
1.92963	58.00
1.94630	58.00
1.96297	58.00
1.97963	58.00
1.99630	58.00
2.01297	58.00
2.02963	58.00
2.04630	58.00
2.06297	58.00
2.07963	58.00
2.09630	58.00
2.11297	58.00
2.12963	58.00
2.14630	58.00
2.16297	58.00
2.17963	58.00
2.19630	58.00
2.21297	58.00
2.22963	58.00
2.24630	58.00
2.26297	58.00
2.27963	58.00
2.29630	58.00
2.31297	58.00
2.32963	58.00
2.34630	58.00
2.36297	58.00
2.37963	57.99
2.39630	57.99
2.41297	58.00
2.42963	58.00
2.44630	58.00
2.46297	58.00
2.47963	58.00
2.49630	58.00
2.51297	57.99
2.52963	57.99
2.54630	58.00
2.56297	58.00
2.57963	58.00
2.59630	58.00
2.61297	58.00
2.62963	58.00
2.64630	58.00
2.66297	58.00
2.67963	58.00
2.69630	58.00
2.71297	58.00
2.72963	58.00
2.74630	58.00
2.76297	58.00
2.77963	58.00
2.79630	58.00
2.81297	58.00
2.82963	58.00
2.84630	58.00
2.86297	58.00
2.87963	58.00
2.89630	58.00
2.91297	58.00
2.92963	58.00
2.94630	58.00
2.96297	58.00
2.97963	58.00
2.99630	58.00
3.01297	58.00
3.02963	58.00
3.04630	58.00
3.06297	58.00
3.07963	58.00
3.09630	58.00
3.11297	58.00
3.12963	58.00
3.14630	58.00
3.16297	58.00
3.17963	58.00
3.19630	58.00
3.21297	58.00
3.22963	58.00
3.24630	58.00
3.26297	58.00
3.27963	58.00
3.29630	58.00
3.31297	58.00
3.32963	58.00
3.34630	58.00
3.36297	58.00
3.37963	58.00
3.39630	58.00
3.41297	58.00
3.42963	58.00
3.44630	58.00
3.46297	58.00
3.47963	58.00
3.49630	58.00
3.51297	58.00
3.52963	58.00
3.54630	58.00
3.56297	58.00
3.57963	58.00
3.59630	58.00
3.61297	58.00
3.62963	58.00
3.64630	58.00
3.66297	58.00
3.67963	58.00
3.69630	58.00
3.71297	58.00
3.72963	58.00
3.74630	58.00
3.76297	58.00
3.77963	58.00
3.79630	58.00
3.81297	58.00
3.82963	58.00
3.84630	58.00
3.86297	58.00
3.87963	58.00
3.89630	58.00
3.91297	58.00
3.92963	58.00
3.94630	58.00
3.96297	58.00
3.97963	58.00
3.99630	58.00

[Status Trace (Carrier Gas Flow)]
Interval(msec)	1000
# of Points	240
Start Time(min)	0.013
End Time(min)	3.996
Intensity Units	
Intensity Multiplier	1
R.Time (min)	Intensity
0.01297	34.69
0.02963	34.54
0.04630	34.54
0.06297	34.53
0.07963	34.51
0.09630	34.52
0.11297	34.52
0.12963	34.52
0.14630	34.52
0.16297	34.52
0.17963	34.51
0.19630	34.52
0.21297	34.52
0.22963	34.51
0.24630	34.51
0.26297	34.52
0.27963	34.51
0.29630	34.52
0.31297	34.52
0.32963	34.53
0.34630	34.51
0.36297	34.52
0.37963	34.52
0.39630	34.51
0.41297	34.52
0.42963	34.52
0.44630	34.51
0.46297	34.52
0.47963	34.52
0.49630	34.53
0.51297	34.52
0.52963	34.53
0.54630	34.52
0.56297	34.52
0.57963	34.52
0.59630	34.52
0.61297	34.51
0.62963	34.52
0.64630	34.52
0.66297	34.51
0.67963	34.52
0.69630	34.52
0.71297	34.52
0.72963	34.51
0.74630	34.52
0.76297	34.52
0.77963	34.52
0.79630	34.52
0.81297	34.52
0.82963	34.52
0.84630	34.52
0.86297	34.51
0.87963	34.52
0.89630	34.52
0.91297	34.52
0.92963	34.52
0.94630	34.52
0.96297	34.52
0.97963	34.51
0.99630	34.52
1.01297	34.52
1.02963	34.52
1.04630	34.52
1.06297	34.52
1.07963	34.52
1.09630	34.52
1.11297	34.52
1.12963	34.52
1.14630	34.52
1.16297	34.52
1.17963	34.52
1.19630	34.52
1.21297	34.52
1.22963	34.52
1.24630	34.52
1.26297	34.52
1.27963	34.52
1.29630	34.52
1.31297	34.52
1.32963	34.52
1.34630	34.52
1.36297	34.52
1.37963	34.52
1.39630	34.52
1.41297	34.52
1.42963	34.52
1.44630	34.52
1.46297	34.52
1.47963	34.52
1.49630	34.52
1.51297	34.52
1.52963	34.52
1.54630	34.52
1.56297	34.52
1.57963	34.52
1.59630	34.52
1.61297	34.52
1.62963	34.52
1.64630	34.52
1.66297	34.52
1.67963	34.52
1.69630	34.52
1.71297	34.52
1.72963	34.53
1.74630	34.52
1.76297	34.51
1.77963	34.52
1.79630	34.52
1.81297	34.52
1.82963	34.52
1.84630	34.52
1.86297	34.52
1.87963	34.52
1.89630	34.51
1.91297	34.51
1.92963	34.52
1.94630	34.52
1.96297	34.52
1.97963	34.52
1.99630	34.52
2.01297	34.51
2.02963	34.52
2.04630	34.52
2.06297	34.52
2.07963	34.52
2.09630	34.53
2.11297	34.52
2.12963	34.53
2.14630	34.52
2.16297	34.52
2.17963	34.52
2.19630	34.52
2.21297	34.52
2.22963	34.51
2.24630	34.52
2.26297	34.51
2.27963	34.52
2.29630	34.52
2.31297	34.52
2.32963	34.52
2.34630	34.52
2.36297	34.52
2.37963	34.51
2.39630	34.52
2.41297	34.52
2.42963	34.52
2.44630	34.52
2.46297	34.52
2.47963	34.52
2.49630	34.52
2.51297	34.51
2.52963	34.52
2.54630	34.52
2.56297	34.52
2.57963	34.52
2.59630	34.52
2.61297	34.52
2.62963	34.52
2.64630	34.51
2.66297	34.52
2.67963	34.52
2.69630	34.52
2.71297	34.52
2.72963	34.51
2.74630	34.52
2.76297	34.52
2.77963	34.52
2.79630	34.52
2.81297	34.52
2.82963	34.52
2.84630	34.52
2.86297	34.52
2.87963	34.52
2.89630	34.52
2.91297	34.52
2.92963	34.52
2.94630	34.52
2.96297	34.52
2.97963	34.52
2.99630	34.52
3.01297	34.52
3.02963	34.52
3.04630	34.52
3.06297	34.52
3.07963	34.52
3.09630	34.52
3.11297	34.52
3.12963	34.52
3.14630	34.52
3.16297	34.52
3.17963	34.52
3.19630	34.52
3.21297	34.52
3.22963	34.52
3.24630	34.52
3.26297	34.51
3.27963	34.51
3.29630	34.52
3.31297	34.52
3.32963	34.52
3.34630	34.51
3.36297	34.52
3.37963	34.53
3.39630	34.52
3.41297	34.51
3.42963	34.52
3.44630	34.52
3.46297	34.51
3.47963	34.52
3.49630	34.52
3.51297	34.52
3.52963	34.52
3.54630	34.52
3.56297	34.52
3.57963	34.53
3.59630	34.52
3.61297	34.52
3.62963	34.52
3.64630	34.52
3.66297	34.52
3.67963	34.52
3.69630	34.52
3.71297	34.52
3.72963	34.52
3.74630	34.52
3.76297	34.52
3.77963	34.52
3.79630	34.52
3.81297	34.52
3.82963	34.52
3.84630	34.52
3.86297	34.52
3.87963	34.52
3.89630	34.52
3.91297	34.52
3.92963	34.52
3.94630	34.52
3.96297	34.52
3.97963	34.52
3.99630	34.56

[Status Trace (Column Flow)]
Interval(msec)	1000
# of Points	240
Start Time(min)	0.013
End Time(min)	3.996
Intensity Units	
Intensity Multiplier	1
R.Time (min)	Intensity
0.01297	5.52
0.02963	5.21
0.04630	5.50
0.06297	5.73
0.07963	5.61
0.09630	5.52
0.11297	5.52
0.12963	5.52
0.14630	5.52
0.16297	5.52
0.17963	5.52
0.19630	5.52
0.21297	5.52
0.22963	5.52
0.24630	5.52
0.26297	5.52
0.27963	5.52
0.29630	5.52
0.31297	5.52
0.32963	5.52
0.34630	5.52
0.36297	5.52
0.37963	5.52
0.39630	5.52
0.41297	5.52
0.42963	5.52
0.44630	5.52
0.46297	5.52
0.47963	5.52
0.49630	5.52
0.51297	5.52
0.52963	5.52
0.54630	5.52
0.56297	5.52
0.57963	5.52
0.59630	5.52
0.61297	5.52
0.62963	5.52
0.64630	5.52
0.66297	5.52
0.67963	5.52
0.69630	5.52
0.71297	5.52
0.72963	5.52
0.74630	5.52
0.76297	5.52
0.77963	5.52
0.79630	5.52
0.81297	5.52
0.82963	5.52
0.84630	5.52
0.86297	5.52
0.87963	5.52
0.89630	5.52
0.91297	5.52
0.92963	5.52
0.94630	5.52
0.96297	5.52
0.97963	5.52
0.99630	5.52
1.01297	5.52
1.02963	5.52
1.04630	5.52
1.06297	5.52
1.07963	5.52
1.09630	5.52
1.11297	5.53
1.12963	5.53
1.14630	5.52
1.16297	5.52
1.17963	5.52
1.19630	5.52
1.21297	5.52
1.22963	5.52
1.24630	5.52
1.26297	5.52
1.27963	5.52
1.29630	5.52
1.31297	5.52
1.32963	5.52
1.34630	5.52
1.36297	5.52
1.37963	5.52
1.39630	5.52
1.41297	5.52
1.42963	5.52
1.44630	5.52
1.46297	5.52
1.47963	5.52
1.49630	5.52
1.51297	5.52
1.52963	5.52
1.54630	5.52
1.56297	5.52
1.57963	5.52
1.59630	5.52
1.61297	5.52
1.62963	5.52
1.64630	5.51
1.66297	5.50
1.67963	5.49
1.69630	5.48
1.71297	5.47
1.72963	5.46
1.74630	5.45
1.76297	5.44
1.77963	5.43
1.79630	5.42
1.81297	5.41
1.82963	5.40
1.84630	5.39
1.86297	5.38
1.87963	5.37
1.89630	5.36
1.91297	5.35
1.92963	5.34
1.94630	5.33
1.96297	5.32
1.97963	5.31
1.99630	5.30
2.01297	5.29
2.02963	5.28
2.04630	5.27
2.06297	5.26
2.07963	5.25
2.09630	5.24
2.11297	5.23
2.12963	5.22
2.14630	5.21
2.16297	5.20
2.17963	5.19
2.19630	5.18
2.21297	5.18
2.22963	5.17
2.24630	5.16
2.26297	5.15
2.27963	5.14
2.29630	5.13
2.31297	5.12
2.32963	5.11
2.34630	5.10
2.36297	5.09
2.37963	5.09
2.39630	5.09
2.41297	5.09
2.42963	5.09
2.44630	5.09
2.46297	5.09
2.47963	5.09
2.49630	5.09
2.51297	5.09
2.52963	5.09
2.54630	5.09
2.56297	5.09
2.57963	5.09
2.59630	5.08
2.61297	5.09
2.62963	5.08
2.64630	5.08
2.66297	5.08
2.67963	5.08
2.69630	5.08
2.71297	5.08
2.72963	5.08
2.74630	5.08
2.76297	5.08
2.77963	5.08
2.79630	5.08
2.81297	5.08
2.82963	5.08
2.84630	5.08
2.86297	5.08
2.87963	5.08
2.89630	5.08
2.91297	5.08
2.92963	5.08
2.94630	5.08
2.96297	5.08
2.97963	5.08
2.99630	5.08
3.01297	5.08
3.02963	5.08
3.04630	5.08
3.06297	5.08
3.07963	5.08
3.09630	5.08
3.11297	5.08
3.12963	5.08
3.14630	5.08
3.16297	5.08
3.17963	5.08
3.19630	5.08
3.21297	5.08
3.22963	5.08
3.24630	5.08
3.26297	5.08
3.27963	5.08
3.29630	5.08
3.31297	5.08
3.32963	5.08
3.34630	5.08
3.36297	5.08
3.37963	5.08
3.39630	5.08
3.41297	5.08
3.42963	5.08
3.44630	5.08
3.46297	5.08
3.47963	5.08
3.49630	5.08
3.51297	5.08
3.52963	5.08
3.54630	5.08
3.56297	5.08
3.57963	5.08
3.59630	5.08
3.61297	5.08
3.62963	5.08
3.64630	5.08
3.66297	5.08
3.67963	5.08
3.69630	5.08
3.71297	5.08
3.72963	5.08
3.74630	5.08
3.76297	5.08
3.77963	5.08
3.79630	5.08
3.81297	5.08
3.82963	5.08
3.84630	5.08
3.86297	5.08
3.87963	5.08
3.89630	5.08
3.91297	5.08
3.92963	5.08
3.94630	5.08
3.96297	5.08
3.97963	5.08
3.99630	5.08

[Status Trace (Linear Velocity)]
Interval(msec)	1000
# of Points	240
Start Time(min)	0.013
End Time(min)	3.996
Intensity Units	
Intensity Multiplier	1
R.Time (min)	Intensity
0.01297	38.98
0.02963	37.22
0.04630	38.86
0.06297	40.18
0.07963	39.51
0.09630	39.01
0.11297	39.01
0.12963	39.02
0.14630	39.02
0.16297	39.02
0.17963	39.02
0.19630	39.02
0.21297	39.02
0.22963	39.02
0.24630	39.02
0.26297	39.02
0.27963	39.02
0.29630	39.02
0.31297	39.02
0.32963	39.02
0.34630	39.01
0.36297	39.01
0.37963	39.02
0.39630	39.02
0.41297	39.02
0.42963	39.02
0.44630	39.01
0.46297	39.02
0.47963	39.02
0.49630	39.02
0.51297	39.02
0.52963	39.02
0.54630	39.02
0.56297	39.02
0.57963	39.02
0.59630	39.02
0.61297	39.02
0.62963	39.02
0.64630	39.02
0.66297	39.02
0.67963	39.02
0.69630	39.02
0.71297	39.02
0.72963	39.02
0.74630	39.02
0.76297	39.02
0.77963	39.02
0.79630	39.02
0.81297	39.02
0.82963	39.02
0.84630	39.01
0.86297	39.01
0.87963	39.01
0.89630	39.01
0.91297	39.02
0.92963	39.02
0.94630	39.02
0.96297	39.02
0.97963	39.02
0.99630	39.02
1.01297	39.02
1.02963	39.02
1.04630	39.02
1.06297	39.02
1.07963	39.02
1.09630	39.02
1.11297	39.02
1.12963	39.02
1.14630	39.02
1.16297	39.02
1.17963	39.02
1.19630	39.02
1.21297	39.02
1.22963	39.02
1.24630	39.02
1.26297	39.02
1.27963	39.02
1.29630	39.02
1.31297	39.02
1.32963	39.02
1.34630	39.02
1.36297	39.02
1.37963	39.02
1.39630	39.02
1.41297	39.02
1.42963	39.02
1.44630	39.02
1.46297	39.02
1.47963	39.02
1.49630	39.01
1.51297	39.02
1.52963	39.02
1.54630	39.02
1.56297	39.02
1.57963	39.02
1.59630	39.02
1.61297	39.01
1.62963	39.00
1.64630	38.98
1.66297	38.95
1.67963	38.92
1.69630	38.88
1.71297	38.85
1.72963	38.81
1.74630	38.78
1.76297	38.75
1.77963	38.72
1.79630	38.69
1.81297	38.66
1.82963	38.63
1.84630	38.60
1.86297	38.57
1.87963	38.53
1.89630	38.50
1.91297	38.47
1.92963	38.44
1.94630	38.41
1.96297	38.38
1.97963	38.35
1.99630	38.32
2.01297	38.29
2.02963	38.26
2.04630	38.23
2.06297	38.20
2.07963	38.17
2.09630	38.14
2.11297	38.11
2.12963	38.08
2.14630	38.05
2.16297	38.03
2.17963	38.00
2.19630	37.97
2.21297	37.94
2.22963	37.91
2.24630	37.88
2.26297	37.85
2.27963	37.82
2.29630	37.79
2.31297	37.75
2.32963	37.73
2.34630	37.70
2.36297	37.67
2.37963	37.66
2.39630	37.66
2.41297	37.66
2.42963	37.66
2.44630	37.66
2.46297	37.66
2.47963	37.66
2.49630	37.66
2.51297	37.65
2.52963	37.65
2.54630	37.65
2.56297	37.65
2.57963	37.65
2.59630	37.65
2.61297	37.65
2.62963	37.65
2.64630	37.65
2.66297	37.65
2.67963	37.65
2.69630	37.64
2.71297	37.64
2.72963	37.65
2.74630	37.65
2.76297	37.65
2.77963	37.64
2.79630	37.64
2.81297	37.65
2.82963	37.65
2.84630	37.64
2.86297	37.64
2.87963	37.64
2.89630	37.64
2.91297	37.64
2.92963	37.64
2.94630	37.64
2.96297	37.64
2.97963	37.64
2.99630	37.64
3.01297	37.64
3.02963	37.63
3.04630	37.63
3.06297	37.63
3.07963	37.63
3.09630	37.63
3.11297	37.63
3.12963	37.63
3.14630	37.63
3.16297	37.63
3.17963	37.63
3.19630	37.63
3.21297	37.63
3.22963	37.63
3.24630	37.63
3.26297	37.63
3.27963	37.63
3.29630	37.63
3.31297	37.62
3.32963	37.62
3.34630	37.62
3.36297	37.62
3.37963	37.62
3.39630	37.63
3.41297	37.63
3.42963	37.63
3.44630	37.63
3.46297	37.63
3.47963	37.63
3.49630	37.63
3.51297	37.63
3.52963	37.63
3.54630	37.63
3.56297	37.63
3.57963	37.63
3.59630	37.63
3.61297	37.63
3.62963	37.63
3.64630	37.63
3.66297	37.63
3.67963	37.63
3.69630	37.63
3.71297	37.63
3.72963	37.63
3.74630	37.63
3.76297	37.63
3.77963	37.63
3.79630	37.63
3.81297	37.63
3.82963	37.63
3.84630	37.63
3.86297	37.63
3.87963	37.63
3.89630	37.63
3.91297	37.63
3.92963	37.63
3.94630	37.63
3.96297	37.63
3.97963	37.63
3.99630	37.63

