[Header]
Application Name	LabSolutions
Version	5.110
Data File Name	C:\Users\User\Desktop\GC Analyses\Jack\Nachusa Grasslands Sampling\T3 Timepoint July 12th\T3_07122022_091.gcd
Output Date	3/14/2023
Output Time	3:43:36 PM

[File Information]
Type	Data File
Generated	3/14/2023 12:41:39 AM
Generated by	System Administrator
Modified	3/14/2023 12:48:31 AM
Modified by	System Administrator

[Sample Information]
Operator Name	System Administrator
Acquired	3/14/2023 12:44:29 AM
Sample Type	0:Unknown
Level	0
Sample Name	091
Sample ID	091
ISTD Amount1	1
ISTD Amount2	1
ISTD Amount3	1
ISTD Amount4	1
ISTD Amount5	1
ISTD Amount6	1
ISTD Amount7	1
ISTD Amount8	1
ISTD Amount9	1
ISTD Amount10	1
ISTD Amount11	1
ISTD Amount12	1
ISTD Amount13	1
ISTD Amount14	1
ISTD Amount15	1
ISTD Amount16	1
ISTD Amount17	1
ISTD Amount18	1
ISTD Amount19	1
ISTD Amount20	1
ISTD Amount21	1
ISTD Amount22	1
ISTD Amount23	1
ISTD Amount24	1
ISTD Amount25	1
ISTD Amount26	1
ISTD Amount27	1
ISTD Amount28	1
ISTD Amount29	1
ISTD Amount30	1
ISTD Amount31	1
ISTD Amount32	1
Sample Amount	1
Dilution Factor	1
Vial#	90
Injection Volume	1
Injection Count	1
Bar Code	

[Original Files]
Data File	C:\Users\User\Desktop\GC Analyses\Jack\Nachusa Grasslands Sampling\T3 Timepoint July 12th\T3_07122022_091.gcd
Method File	C:\LabSolutions\Data\GHG_4min_2022\ghg3_togas_w_acet_4 min_new_int.gcm
Batch File	C:\LabSolutions\Data\AutoSamplerTesting\T3_07122022.gcb
Report Format File	c:\LabSolutions\System\DEFAULT.lsr

[File Description]


[Configuration]
Instrument Name	C0B7VH3-Instrument1
Instrument #	1
Line #	1
# of Detectors	3
Detector ID	DET#1	DET#2	DET#3
Detector Name	FID	PTCD	ECD
# of Channels	1	1	1

[Peak Table(Ch1)]
# of Peaks	3
Peak#	R.Time	I.Time	F.Time	Area	Height	A/H	Conc.	Mark	ID#	Name	k'	Plate #	Plate Ht.	Tailing	Resolution	Sep.Factor	Area Ratio	Height Ratio	Conc. %	Norm Conc.
1	1.476	1.432	1.534	32625	16189	2.015	230.332	   	1	CO	0.000	9716	15.439	1.274	0.000	0.000	0	0	25.041	25.041
2	1.571	1.538	1.611	3791	1989	1.906	73.297	   	2	CH4	0.065	12069	12.428	1.084	1.628	0.000	0	0	7.969	7.969
3	1.996	1.952	2.330	2455229	1180592	2.080	616.196	   	3	CO2	0.353	17460	8.591	1.327	7.232	5.462	0	0	66.991	66.991

[Peak Table(Ch2)]
# of Peaks	0

[Peak Table(Ch3)]
# of Peaks	5
Peak#	R.Time	I.Time	F.Time	Area	Height	A/H	Conc.	Mark	ID#	Name	k'	Plate #	Plate Ht.	Tailing	Resolution	Sep.Factor	Area Ratio	Height Ratio	Conc. %	Norm Conc.
1	2.462	2.330	2.510	2022	664	3.044	0.000	   			0.000	11098	13.516	0.000	0.000	0.000	0	0	0.000	0.000
2	2.532	2.510	2.590	1019	329	3.098	0.000	 V 			0.028	7163	20.940	0.000	0.654	0.000	0	0	0.000	0.000
3	2.601	2.590	2.682	441	124	3.566	0.000	 V 			0.057	875	171.512	0.000	0.296	2.000	0	0	0.000	0.000
4	2.880	2.719	3.041	19055	4887	3.899	0.487	   	1	N2O	0.170	13053	11.492	1.529	1.231	3.000	0	0	100.000	100.000
5	3.280	3.045	3.995	20750	647	32.093	0.000	   	2	SF6	0.332	187	801.640	2.015	0.754	1.956	0	0	0.000	0.000

[Compound Results(Ch1)]
# of IDs	6
ID#	Name	R.Time	Area	Height	Conc.	Curve	3rd	2nd	1st	Constant	Area Ratio	Height Ratio	Conc. %	Norm Conc.
1	CO	1.476	32625	16189	230.332	Linear	0.000000e+00	0.000000e+00	1.416423e+002	0.000000e+00	0	0	25.041	25.041
2	CH4	1.571	3791	1989	73.297	Linear	0.000000e+00	0.000000e+00	5.171738e+001	0.000000e+00	0	0	7.969	7.969
3	CO2	1.996	2455229	1180592	616.196	Linear	0.000000e+00	0.000000e+00	3.984494e+003	0.000000e+00	0	0	66.991	66.991
4	Ethylene	0.000	0	0	0.000	Linear	0.000000e+00	0.000000e+00	0.000000e+00	0.000000e+00	0	0	0.000	0.000
5	Acetylene	0.000	0	0	0.000	Linear	0.000000e+00	0.000000e+00	0.000000e+00	0.000000e+00	0	0	0.000	0.000
6	Ethane	0.000	0	0	0.000	Linear	0.000000e+00	0.000000e+00	0.000000e+00	0.000000e+00	0	0	0.000	0.000

[Compound Results(Ch2)]
# of IDs	5
ID#	Name	R.Time	Area	Height	Conc.	Curve	3rd	2nd	1st	Constant	Area Ratio	Height Ratio	Conc. %	Norm Conc.
1	Hydrogen	0.000	0	0	0.000	Linear	0.000000e+00	0.000000e+00	0.000000e+00	0.000000e+00	0	0	0.000	0.000
2	Oxygen	0.000	0	0	0.000	Linear	0.000000e+00	0.000000e+00	0.000000e+00	0.000000e+00	0	0	0.000	0.000
3	Nitrogen	0.000	0	0	0.000	Linear	0.000000e+00	0.000000e+00	0.000000e+00	0.000000e+00	0	0	0.000	0.000
4	Methane	0.000	0	0	0.000	Linear	0.000000e+00	0.000000e+00	0.000000e+00	0.000000e+00	0	0	0.000	0.000
5	Carbon Monoxide	0.000	0	0	0.000	Linear	0.000000e+00	0.000000e+00	0.000000e+00	0.000000e+00	0	0	0.000	0.000

[Compound Results(Ch3)]
# of IDs	2
ID#	Name	R.Time	Area	Height	Conc.	Curve	3rd	2nd	1st	Constant	Area Ratio	Height Ratio	Conc. %	Norm Conc.
1	N2O	2.880	19055	4887	0.487	Linear	0.000000e+00	0.000000e+00	3.915173e+004	0.000000e+00	0	0	100.000	100.000
2	SF6	3.280	20750	647	0.000	Linear	0.000000e+00	0.000000e+00	0.000000e+00	0.000000e+00	0	0	0.000	0.000

[Group Results(Ch1)]
# of Groups	0

[Group Results(Ch2)]
# of Groups	0

[Group Results(Ch3)]
# of Groups	0

[Chromatogram (Ch1)]
Interval(msec)	220
# of Points	1091
Start Time(min)	0.002
End Time(min)	3.998
R.Time (min)	Intensity
0.00167	23
0.00533	23
0.00900	20
0.01267	20
0.01633	18
0.02000	15
0.02367	16
0.02733	17
0.03100	20
0.03467	23
0.03833	23
0.04200	24
0.04567	24
0.04933	25
0.05300	29
0.05667	33
0.06033	39
0.06400	43
0.06767	47
0.07133	52
0.07500	56
0.07867	59
0.08233	62
0.08600	67
0.08967	72
0.09333	74
0.09700	73
0.10067	70
0.10433	72
0.10800	82
0.11167	97
0.11533	109
0.11900	114
0.12267	113
0.12633	104
0.13000	93
0.13367	83
0.13733	75
0.14100	71
0.14467	72
0.14833	74
0.15200	78
0.15567	79
0.15933	83
0.16300	94
0.16667	105
0.17033	113
0.17400	113
0.17767	106
0.18133	94
0.18500	81
0.18867	68
0.19233	54
0.19600	41
0.19967	33
0.20333	29
0.20700	26
0.21067	22
0.21433	16
0.21800	11
0.22167	11
0.22533	10
0.22900	5
0.23267	6
0.23633	14
0.24000	23
0.24367	28
0.24733	32
0.25100	34
0.25467	34
0.25833	34
0.26200	34
0.26567	39
0.26933	43
0.27300	44
0.27667	44
0.28033	40
0.28400	33
0.28767	26
0.29133	22
0.29500	20
0.29867	14
0.30233	8
0.30600	7
0.30967	12
0.31333	14
0.31700	15
0.32067	16
0.32433	21
0.32800	26
0.33167	27
0.33533	27
0.33900	30
0.34267	33
0.34633	35
0.35000	36
0.35367	34
0.35733	29
0.36100	26
0.36467	24
0.36833	22
0.37200	22
0.37567	21
0.37933	20
0.38300	20
0.38667	22
0.39033	28
0.39400	31
0.39767	33
0.40133	35
0.40500	39
0.40867	40
0.41233	41
0.41600	43
0.41967	45
0.42333	44
0.42700	43
0.43067	44
0.43433	47
0.43800	52
0.44167	59
0.44533	63
0.44900	59
0.45267	58
0.45633	47
0.46000	35
0.46367	30
0.46733	29
0.47100	36
0.47467	42
0.47833	46
0.48200	45
0.48567	42
0.48933	34
0.49300	29
0.49667	30
0.50033	31
0.50400	30
0.50767	26
0.51133	24
0.51500	23
0.51867	18
0.52233	15
0.52600	20
0.52967	32
0.53333	43
0.53700	51
0.54067	58
0.54433	62
0.54800	59
0.55167	53
0.55533	46
0.55900	39
0.56267	35
0.56633	32
0.57000	23
0.57367	13
0.57733	22
0.58100	31
0.58467	23
0.58833	13
0.59200	24
0.59567	33
0.59933	36
0.60300	40
0.60667	44
0.61033	44
0.61400	43
0.61767	46
0.62133	49
0.62500	48
0.62867	42
0.63233	37
0.63600	34
0.63967	33
0.64333	35
0.64700	37
0.65067	41
0.65433	44
0.65800	45
0.66167	44
0.66533	40
0.66900	34
0.67267	31
0.67633	32
0.68000	38
0.68367	45
0.68733	47
0.69100	41
0.69467	36
0.69833	35
0.70200	37
0.70567	42
0.70933	49
0.71300	55
0.71667	59
0.72033	58
0.72400	53
0.72767	51
0.73133	53
0.73500	57
0.73867	55
0.74233	53
0.74600	50
0.74967	46
0.75333	43
0.75700	42
0.76067	42
0.76433	44
0.76800	49
0.77167	55
0.77533	59
0.77900	56
0.78267	48
0.78633	42
0.79000	35
0.79367	34
0.79733	34
0.80100	32
0.80467	30
0.80833	30
0.81200	34
0.81567	37
0.81933	36
0.82300	32
0.82667	25
0.83033	23
0.83400	27
0.83767	30
0.84133	29
0.84500	27
0.84867	25
0.85233	24
0.85600	28
0.85967	35
0.86333	40
0.86700	40
0.87067	40
0.87433	39
0.87800	41
0.88167	48
0.88533	53
0.88900	57
0.89267	61
0.89633	63
0.90000	61
0.90367	59
0.90733	59
0.91100	59
0.91467	55
0.91833	51
0.92200	46
0.92567	39
0.92933	33
0.93300	29
0.93667	24
0.94033	21
0.94400	21
0.94767	20
0.95133	19
0.95500	19
0.95867	21
0.96233	24
0.96600	24
0.96967	25
0.97333	27
0.97700	27
0.98067	26
0.98433	25
0.98800	23
0.99167	23
0.99533	25
0.99900	27
1.00267	31
1.00633	37
1.01000	42
1.01367	44
1.01733	45
1.02100	44
1.02467	42
1.02833	37
1.03200	35
1.03567	31
1.03933	24
1.04300	15
1.04667	14
1.05033	21
1.05400	27
1.05767	28
1.06133	25
1.06500	23
1.06867	17
1.07233	9
1.07600	2
1.07967	-1
1.08333	0
1.08700	3
1.09067	8
1.09433	15
1.09800	26
1.10167	37
1.10533	45
1.10900	54
1.11267	63
1.11633	65
1.12000	57
1.12367	43
1.12733	29
1.13100	20
1.13467	19
1.13833	21
1.14200	26
1.14567	31
1.14933	34
1.15300	35
1.15667	34
1.16033	35
1.16400	35
1.16767	35
1.17133	36
1.17500	36
1.17867	39
1.18233	47
1.18600	50
1.18967	47
1.19333	44
1.19700	41
1.20067	39
1.20433	35
1.20800	29
1.21167	20
1.21533	18
1.21900	21
1.22267	26
1.22633	27
1.23000	20
1.23367	4
1.23733	-8
1.24100	-12
1.24467	-14
1.24833	-14
1.25200	-10
1.25567	-3
1.25933	5
1.26300	11
1.26667	12
1.27033	13
1.27400	17
1.27767	22
1.28133	25
1.28500	22
1.28867	18
1.29233	15
1.29600	16
1.29967	20
1.30333	24
1.30700	26
1.31067	28
1.31433	29
1.31800	30
1.32167	29
1.32533	28
1.32900	27
1.33267	25
1.33633	23
1.34000	24
1.34367	23
1.34733	25
1.35100	27
1.35467	22
1.35833	20
1.36200	19
1.36567	17
1.36933	13
1.37300	8
1.37667	5
1.38033	2
1.38400	-2
1.38767	-3
1.39133	-1
1.39500	5
1.39867	9
1.40233	12
1.40600	14
1.40967	16
1.41333	16
1.41700	17
1.42067	18
1.42433	19
1.42800	20
1.43167	23
1.43533	26
1.43900	35
1.44267	71
1.44633	225
1.45000	744
1.45367	2111
1.45733	4603
1.46100	7780
1.46467	10915
1.46833	13506
1.47200	15316
1.47567	16193
1.47933	15983
1.48300	14673
1.48667	12527
1.49033	10000
1.49400	7540
1.49767	5436
1.50133	3787
1.50500	2567
1.50867	1701
1.51233	1104
1.51600	696
1.51967	419
1.52333	232
1.52700	109
1.53067	29
1.53433	-20
1.53800	-38
1.54167	-5
1.54533	129
1.54900	400
1.55267	778
1.55633	1179
1.56000	1527
1.56367	1788
1.56733	1940
1.57100	1958
1.57467	1824
1.57833	1559
1.58200	1229
1.58567	898
1.58933	613
1.59300	398
1.59667	245
1.60033	135
1.60400	55
1.60767	3
1.61133	-23
1.61500	-29
1.61867	-25
1.62233	-21
1.62600	-21
1.62967	-20
1.63333	-26
1.63700	-36
1.64067	-45
1.64433	-52
1.64800	-56
1.65167	-60
1.65533	-64
1.65900	-65
1.66267	-64
1.66633	-64
1.67000	-60
1.67367	-50
1.67733	-44
1.68100	-44
1.68467	-49
1.68833	-55
1.69200	-56
1.69567	-50
1.69933	-39
1.70300	-33
1.70667	-31
1.71033	-33
1.71400	-34
1.71767	-34
1.72133	-35
1.72500	-38
1.72867	-40
1.73233	-39
1.73600	-39
1.73967	-42
1.74333	-43
1.74700	-42
1.75067	-38
1.75433	-34
1.75800	-26
1.76167	-16
1.76533	-10
1.76900	-2
1.77267	8
1.77633	14
1.78000	12
1.78367	3
1.78733	-11
1.79100	-22
1.79467	-32
1.79833	-39
1.80200	-46
1.80567	-48
1.80933	-41
1.81300	-25
1.81667	-9
1.82033	-4
1.82400	-11
1.82767	-24
1.83133	-34
1.83500	-37
1.83867	-36
1.84233	-32
1.84600	-22
1.84967	-13
1.85333	-8
1.85700	-8
1.86067	-10
1.86433	-10
1.86800	-8
1.87167	-2
1.87533	1
1.87900	3
1.88267	5
1.88633	10
1.89000	12
1.89367	12
1.89733	9
1.90100	4
1.90467	-3
1.90833	-8
1.91200	-10
1.91567	-9
1.91933	-4
1.92300	5
1.92667	15
1.93033	19
1.93400	20
1.93767	21
1.94133	25
1.94500	29
1.94867	33
1.95233	51
1.95600	175
1.95967	957
1.96333	4809
1.96700	19234
1.97067	60585
1.97433	151669
1.97800	307079
1.98167	516448
1.98533	745692
1.98900	953407
1.99267	1105324
1.99633	1180682
2.00000	1171633
2.00367	1084891
2.00733	940899
2.01100	768128
2.01467	594647
2.01833	440747
2.02200	316105
2.02567	221664
2.02933	153434
2.03300	105740
2.03667	73113
2.04033	51064
2.04400	36241
2.04767	26264
2.05133	19505
2.05500	14879
2.05867	11660
2.06233	9370
2.06600	7706
2.06967	6472
2.07333	5538
2.07700	4810
2.08067	4226
2.08433	3756
2.08800	3373
2.09167	3056
2.09533	2784
2.09900	2549
2.10267	2351
2.10633	2180
2.11000	2033
2.11367	1906
2.11733	1793
2.12100	1690
2.12467	1598
2.12833	1517
2.13200	1441
2.13567	1369
2.13933	1303
2.14300	1242
2.14667	1187
2.15033	1138
2.15400	1091
2.15767	1047
2.16133	1011
2.16500	978
2.16867	939
2.17233	902
2.17600	870
2.17967	842
2.18333	818
2.18700	795
2.19067	775
2.19433	752
2.19800	723
2.20167	693
2.20533	667
2.20900	644
2.21267	624
2.21633	611
2.22000	605
2.22367	604
2.22733	600
2.23100	592
2.23467	587
2.23833	583
2.24200	574
2.24567	562
2.24933	549
2.25300	536
2.25667	527
2.26033	520
2.26400	518
2.26767	519
2.27133	518
2.27500	511
2.27867	495
2.28233	476
2.28600	460
2.28967	451
2.29333	448
2.29700	446
2.30067	448
2.30433	447
2.30800	435
2.31167	424
2.31533	413
2.31900	403
2.32267	398
2.32633	395
2.33000	396
2.33367	397
2.33733	396
2.34100	394
2.34467	391
2.34833	389
2.35200	386
2.35567	385
2.35933	386
2.36300	386
2.36667	387
2.37033	390
2.37400	393
2.37767	396
2.38133	397
2.38500	393
2.38867	391
2.39233	388
2.39600	380
2.39967	371
2.40333	365
2.40700	366
2.41067	370
2.41433	374
2.41800	377
2.42167	380
2.42533	381
2.42900	379
2.43267	378
2.43633	375
2.44000	367
2.44367	359
2.44733	355
2.45100	351
2.45467	346
2.45833	340
2.46200	333
2.46567	330
2.46933	332
2.47300	342
2.47667	353
2.48033	361
2.48400	365
2.48767	366
2.49133	367
2.49500	376
2.49867	388
2.50233	398
2.50600	398
2.50967	389
2.51333	381
2.51700	376
2.52067	375
2.52433	376
2.52800	378
2.53167	379
2.53533	378
2.53900	376
2.54267	371
2.54633	366
2.55000	365
2.55367	367
2.55733	371
2.56100	374
2.56467	376
2.56833	374
2.57200	372
2.57567	375
2.57933	378
2.58300	374
2.58667	365
2.59033	361
2.59400	360
2.59767	362
2.60133	365
2.60500	368
2.60867	373
2.61233	383
2.61600	394
2.61967	397
2.62333	389
2.62700	380
2.63067	377
2.63433	380
2.63800	381
2.64167	378
2.64533	375
2.64900	371
2.65267	366
2.65633	363
2.66000	361
2.66367	357
2.66733	356
2.67100	362
2.67467	372
2.67833	380
2.68200	386
2.68567	384
2.68933	382
2.69300	382
2.69667	379
2.70033	376
2.70400	375
2.70767	381
2.71133	391
2.71500	397
2.71867	392
2.72233	382
2.72600	371
2.72967	365
2.73333	367
2.73700	373
2.74067	376
2.74433	372
2.74800	363
2.75167	361
2.75533	367
2.75900	374
2.76267	381
2.76633	389
2.77000	398
2.77367	407
2.77733	409
2.78100	408
2.78467	403
2.78833	395
2.79200	387
2.79567	384
2.79933	388
2.80300	392
2.80667	392
2.81033	385
2.81400	377
2.81767	373
2.82133	376
2.82500	381
2.82867	381
2.83233	375
2.83600	367
2.83967	364
2.84333	366
2.84700	370
2.85067	373
2.85433	377
2.85800	384
2.86167	393
2.86533	402
2.86900	403
2.87267	400
2.87633	399
2.88000	396
2.88367	389
2.88733	379
2.89100	370
2.89467	364
2.89833	364
2.90200	368
2.90567	372
2.90933	371
2.91300	369
2.91667	366
2.92033	365
2.92400	365
2.92767	368
2.93133	371
2.93500	378
2.93867	395
2.94233	412
2.94600	420
2.94967	416
2.95333	408
2.95700	401
2.96067	396
2.96433	393
2.96800	391
2.97167	390
2.97533	388
2.97900	383
2.98267	380
2.98633	380
2.99000	388
2.99367	397
2.99733	402
3.00100	404
3.00467	404
3.00833	406
3.01200	409
3.01567	410
3.01933	404
3.02300	396
3.02667	390
3.03033	386
3.03400	387
3.03767	388
3.04133	389
3.04500	396
3.04867	410
3.05233	419
3.05600	417
3.05967	409
3.06333	400
3.06700	393
3.07067	390
3.07433	384
3.07800	375
3.08167	370
3.08533	366
3.08900	364
3.09267	365
3.09633	370
3.10000	373
3.10367	372
3.10733	371
3.11100	369
3.11467	366
3.11833	360
3.12200	354
3.12567	354
3.12933	358
3.13300	367
3.13667	376
3.14033	384
3.14400	388
3.14767	389
3.15133	389
3.15500	388
3.15867	386
3.16233	386
3.16600	389
3.16967	392
3.17333	396
3.17700	401
3.18067	401
3.18433	398
3.18800	396
3.19167	395
3.19533	394
3.19900	392
3.20267	394
3.20633	395
3.21000	391
3.21367	384
3.21733	377
3.22100	372
3.22467	366
3.22833	361
3.23200	356
3.23567	348
3.23933	343
3.24300	342
3.24667	347
3.25033	356
3.25400	369
3.25767	378
3.26133	383
3.26500	383
3.26867	383
3.27233	385
3.27600	386
3.27967	384
3.28333	377
3.28700	366
3.29067	359
3.29433	354
3.29800	352
3.30167	348
3.30533	343
3.30900	342
3.31267	345
3.31633	348
3.32000	351
3.32367	356
3.32733	362
3.33100	365
3.33467	362
3.33833	358
3.34200	359
3.34567	359
3.34933	360
3.35300	363
3.35667	367
3.36033	372
3.36400	372
3.36767	362
3.37133	348
3.37500	337
3.37867	332
3.38233	330
3.38600	329
3.38967	330
3.39333	337
3.39700	347
3.40067	357
3.40433	358
3.40800	352
3.41167	344
3.41533	337
3.41900	334
3.42267	334
3.42633	334
3.43000	334
3.43367	333
3.43733	332
3.44100	336
3.44467	340
3.44833	342
3.45200	339
3.45567	340
3.45933	345
3.46300	349
3.46667	345
3.47033	339
3.47400	332
3.47767	328
3.48133	329
3.48500	328
3.48867	324
3.49233	317
3.49600	314
3.49967	316
3.50333	321
3.50700	323
3.51067	323
3.51433	320
3.51800	317
3.52167	316
3.52533	316
3.52900	318
3.53267	318
3.53633	316
3.54000	314
3.54367	314
3.54733	315
3.55100	316
3.55467	314
3.55833	310
3.56200	306
3.56567	304
3.56933	300
3.57300	297
3.57667	297
3.58033	299
3.58400	301
3.58767	304
3.59133	313
3.59500	324
3.59867	335
3.60233	341
3.60600	339
3.60967	330
3.61333	316
3.61700	300
3.62067	288
3.62433	281
3.62800	285
3.63167	296
3.63533	302
3.63900	300
3.64267	292
3.64633	280
3.65000	270
3.65367	266
3.65733	266
3.66100	270
3.66467	275
3.66833	281
3.67200	286
3.67567	294
3.67933	302
3.68300	308
3.68667	311
3.69033	312
3.69400	313
3.69767	312
3.70133	308
3.70500	300
3.70867	292
3.71233	289
3.71600	288
3.71967	285
3.72333	280
3.72700	276
3.73067	276
3.73433	278
3.73800	281
3.74167	281
3.74533	277
3.74900	268
3.75267	263
3.75633	263
3.76000	264
3.76367	265
3.76733	266
3.77100	263
3.77467	255
3.77833	247
3.78200	235
3.78567	230
3.78933	233
3.79300	240
3.79667	247
3.80033	254
3.80400	258
3.80767	259
3.81133	260
3.81500	267
3.81867	273
3.82233	277
3.82600	280
3.82967	280
3.83333	277
3.83700	271
3.84067	267
3.84433	270
3.84800	273
3.85167	273
3.85533	272
3.85900	271
3.86267	272
3.86633	271
3.87000	272
3.87367	275
3.87733	278
3.88100	277
3.88467	274
3.88833	269
3.89200	266
3.89567	265
3.89933	265
3.90300	265
3.90667	265
3.91033	268
3.91400	271
3.91767	274
3.92133	275
3.92500	274
3.92867	270
3.93233	266
3.93600	264
3.93967	266
3.94333	267
3.94700	259
3.95067	246
3.95433	234
3.95800	224
3.96167	220
3.96533	223
3.96900	229
3.97267	237
3.97633	247
3.98000	253
3.98367	250
3.98733	240
3.99100	225
3.99467	213
3.99833	208

[Chromatogram (Ch2)]
Interval(msec)	220
# of Points	1091
Start Time(min)	0.002
End Time(min)	3.998
R.Time (min)	Intensity
0.00167	1
0.00533	1
0.00900	1
0.01267	1
0.01633	1
0.02000	2
0.02367	2
0.02733	2
0.03100	2
0.03467	2
0.03833	2
0.04200	2
0.04567	2
0.04933	1
0.05300	1
0.05667	1
0.06033	1
0.06400	1
0.06767	1
0.07133	0
0.07500	0
0.07867	0
0.08233	1
0.08600	1
0.08967	1
0.09333	1
0.09700	1
0.10067	2
0.10433	2
0.10800	2
0.11167	2
0.11533	2
0.11900	2
0.12267	2
0.12633	2
0.13000	2
0.13367	2
0.13733	2
0.14100	2
0.14467	2
0.14833	1
0.15200	1
0.15567	1
0.15933	0
0.16300	0
0.16667	-0
0.17033	-0
0.17400	-0
0.17767	-0
0.18133	-0
0.18500	-0
0.18867	-0
0.19233	-0
0.19600	-0
0.19967	0
0.20333	0
0.20700	1
0.21067	1
0.21433	1
0.21800	1
0.22167	1
0.22533	1
0.22900	1
0.23267	1
0.23633	1
0.24000	1
0.24367	1
0.24733	1
0.25100	1
0.25467	1
0.25833	1
0.26200	1
0.26567	1
0.26933	1
0.27300	0
0.27667	0
0.28033	-0
0.28400	-0
0.28767	-1
0.29133	-1
0.29500	-1
0.29867	-1
0.30233	-1
0.30600	-2
0.30967	-2
0.31333	-2
0.31700	-2
0.32067	-2
0.32433	-2
0.32800	-2
0.33167	-2
0.33533	-2
0.33900	-2
0.34267	-2
0.34633	-2
0.35000	-1
0.35367	-1
0.35733	-1
0.36100	-0
0.36467	-0
0.36833	0
0.37200	1
0.37567	1
0.37933	1
0.38300	1
0.38667	1
0.39033	1
0.39400	1
0.39767	1
0.40133	1
0.40500	1
0.40867	2
0.41233	2
0.41600	2
0.41967	2
0.42333	2
0.42700	2
0.43067	2
0.43433	2
0.43800	2
0.44167	1
0.44533	1
0.44900	1
0.45267	1
0.45633	1
0.46000	1
0.46367	1
0.46733	1
0.47100	0
0.47467	0
0.47833	0
0.48200	-0
0.48567	-0
0.48933	-1
0.49300	-1
0.49667	-1
0.50033	-1
0.50400	-1
0.50767	-2
0.51133	-2
0.51500	-2
0.51867	-2
0.52233	-2
0.52600	-2
0.52967	-2
0.53333	-2
0.53700	-1
0.54067	-1
0.54433	-1
0.54800	-1
0.55167	-1
0.55533	-1
0.55900	-1
0.56267	-1
0.56633	-1
0.57000	-1
0.57367	-1
0.57733	-1
0.58100	-1
0.58467	-1
0.58833	-2
0.59200	-2
0.59567	-2
0.59933	-2
0.60300	-2
0.60667	-3
0.61033	-3
0.61400	-3
0.61767	-3
0.62133	-3
0.62500	-3
0.62867	-3
0.63233	-3
0.63600	-3
0.63967	-2
0.64333	-2
0.64700	-2
0.65067	-2
0.65433	-1
0.65800	-1
0.66167	-1
0.66533	-1
0.66900	-1
0.67267	-1
0.67633	-1
0.68000	-0
0.68367	-0
0.68733	-1
0.69100	-1
0.69467	-1
0.69833	-0
0.70200	-0
0.70567	-0
0.70933	-0
0.71300	0
0.71667	0
0.72033	0
0.72400	1
0.72767	1
0.73133	0
0.73500	0
0.73867	-0
0.74233	-0
0.74600	-1
0.74967	-1
0.75333	-1
0.75700	-1
0.76067	-1
0.76433	-2
0.76800	-2
0.77167	-2
0.77533	-2
0.77900	-2
0.78267	-2
0.78633	-2
0.79000	-3
0.79367	-3
0.79733	-3
0.80100	-3
0.80467	-3
0.80833	-3
0.81200	-3
0.81567	-3
0.81933	-2
0.82300	-2
0.82667	-1
0.83033	-1
0.83400	-1
0.83767	-0
0.84133	0
0.84500	0
0.84867	0
0.85233	0
0.85600	0
0.85967	0
0.86333	0
0.86700	0
0.87067	0
0.87433	-0
0.87800	-0
0.88167	-0
0.88533	-0
0.88900	-0
0.89267	-0
0.89633	-0
0.90000	0
0.90367	0
0.90733	1
0.91100	1
0.91467	1
0.91833	0
0.92200	0
0.92567	1
0.92933	1
0.93300	0
0.93667	0
0.94033	0
0.94400	0
0.94767	-0
0.95133	-0
0.95500	-1
0.95867	-1
0.96233	-1
0.96600	-1
0.96967	-1
0.97333	-1
0.97700	-1
0.98067	-1
0.98433	-2
0.98800	-2
0.99167	-2
0.99533	-2
0.99900	-2
1.00267	-2
1.00633	-2
1.01000	-1
1.01367	-1
1.01733	-1
1.02100	-1
1.02467	-1
1.02833	-1
1.03200	-2
1.03567	-2
1.03933	-2
1.04300	-2
1.04667	-2
1.05033	-2
1.05400	-2
1.05767	-2
1.06133	-1
1.06500	-1
1.06867	-1
1.07233	-1
1.07600	-1
1.07967	-1
1.08333	-1
1.08700	-1
1.09067	-1
1.09433	-2
1.09800	-2
1.10167	-2
1.10533	-2
1.10900	-2
1.11267	-2
1.11633	-2
1.12000	-1
1.12367	-1
1.12733	-1
1.13100	-1
1.13467	-1
1.13833	-1
1.14200	-0
1.14567	0
1.14933	0
1.15300	0
1.15667	-0
1.16033	-0
1.16400	-1
1.16767	-1
1.17133	-2
1.17500	-2
1.17867	-2
1.18233	-2
1.18600	-2
1.18967	-3
1.19333	-3
1.19700	-3
1.20067	-3
1.20433	-3
1.20800	-3
1.21167	-3
1.21533	-3
1.21900	-3
1.22267	-3
1.22633	-3
1.23000	-3
1.23367	-3
1.23733	-3
1.24100	-3
1.24467	-3
1.24833	-2
1.25200	-2
1.25567	-2
1.25933	-2
1.26300	-1
1.26667	-1
1.27033	-1
1.27400	-1
1.27767	-1
1.28133	-1
1.28500	-1
1.28867	-1
1.29233	-1
1.29600	-1
1.29967	-1
1.30333	-1
1.30700	-1
1.31067	-2
1.31433	-2
1.31800	-2
1.32167	-2
1.32533	-2
1.32900	-1
1.33267	-1
1.33633	-0
1.34000	-0
1.34367	0
1.34733	0
1.35100	0
1.35467	0
1.35833	0
1.36200	0
1.36567	-0
1.36933	-1
1.37300	-2
1.37667	-2
1.38033	-3
1.38400	-3
1.38767	-3
1.39133	-3
1.39500	-3
1.39867	-3
1.40233	-3
1.40600	-3
1.40967	-3
1.41333	-3
1.41700	-3
1.42067	-3
1.42433	-3
1.42800	-3
1.43167	-3
1.43533	-3
1.43900	-3
1.44267	-3
1.44633	-3
1.45000	-2
1.45367	-2
1.45733	-2
1.46100	-2
1.46467	-2
1.46833	-3
1.47200	-3
1.47567	-3
1.47933	-3
1.48300	-3
1.48667	-3
1.49033	-3
1.49400	-3
1.49767	-3
1.50133	-3
1.50500	-3
1.50867	-3
1.51233	-3
1.51600	-3
1.51967	-3
1.52333	-3
1.52700	-3
1.53067	-3
1.53433	-3
1.53800	-3
1.54167	-3
1.54533	-3
1.54900	-3
1.55267	-3
1.55633	-3
1.56000	-3
1.56367	-4
1.56733	-4
1.57100	-4
1.57467	-4
1.57833	-4
1.58200	-4
1.58567	-4
1.58933	-4
1.59300	-4
1.59667	-4
1.60033	-5
1.60400	-6
1.60767	-7
1.61133	-9
1.61500	-11
1.61867	-13
1.62233	-16
1.62600	-18
1.62967	-21
1.63333	-24
1.63700	-28
1.64067	-31
1.64433	-35
1.64800	-39
1.65167	-43
1.65533	-46
1.65900	-50
1.66267	-55
1.66633	-59
1.67000	-64
1.67367	-69
1.67733	-74
1.68100	-79
1.68467	-83
1.68833	-88
1.69200	-91
1.69567	-95
1.69933	-98
1.70300	-100
1.70667	-102
1.71033	-103
1.71400	-104
1.71767	-105
1.72133	-105
1.72500	-105
1.72867	-105
1.73233	-105
1.73600	-105
1.73967	-105
1.74333	-105
1.74700	-106
1.75067	-106
1.75433	-107
1.75800	-108
1.76167	-110
1.76533	-111
1.76900	-113
1.77267	-114
1.77633	-114
1.78000	-115
1.78367	-115
1.78733	-114
1.79100	-114
1.79467	-113
1.79833	-113
1.80200	-113
1.80567	-113
1.80933	-113
1.81300	-113
1.81667	-114
1.82033	-114
1.82400	-114
1.82767	-114
1.83133	-114
1.83500	-115
1.83867	-115
1.84233	-115
1.84600	-115
1.84967	-115
1.85333	-114
1.85700	-114
1.86067	-113
1.86433	-113
1.86800	-113
1.87167	-112
1.87533	-112
1.87900	-112
1.88267	-112
1.88633	-113
1.89000	-113
1.89367	-114
1.89733	-114
1.90100	-114
1.90467	-114
1.90833	-114
1.91200	-113
1.91567	-113
1.91933	-112
1.92300	-112
1.92667	-111
1.93033	-111
1.93400	-111
1.93767	-111
1.94133	-111
1.94500	-111
1.94867	-111
1.95233	-111
1.95600	-111
1.95967	-110
1.96333	-110
1.96700	-109
1.97067	-108
1.97433	-107
1.97800	-106
1.98167	-106
1.98533	-105
1.98900	-105
1.99267	-105
1.99633	-105
2.00000	-105
2.00367	-105
2.00733	-105
2.01100	-105
2.01467	-106
2.01833	-107
2.02200	-107
2.02567	-107
2.02933	-107
2.03300	-107
2.03667	-106
2.04033	-105
2.04400	-105
2.04767	-104
2.05133	-104
2.05500	-103
2.05867	-103
2.06233	-103
2.06600	-103
2.06967	-103
2.07333	-103
2.07700	-103
2.08067	-103
2.08433	-102
2.08800	-102
2.09167	-101
2.09533	-100
2.09900	-99
2.10267	-98
2.10633	-98
2.11000	-97
2.11367	-97
2.11733	-98
2.12100	-98
2.12467	-98
2.12833	-98
2.13200	-97
2.13567	-97
2.13933	-96
2.14300	-96
2.14667	-96
2.15033	-96
2.15400	-95
2.15767	-95
2.16133	-95
2.16500	-94
2.16867	-94
2.17233	-93
2.17600	-92
2.17967	-91
2.18333	-91
2.18700	-90
2.19067	-90
2.19433	-90
2.19800	-90
2.20167	-89
2.20533	-89
2.20900	-88
2.21267	-88
2.21633	-88
2.22000	-88
2.22367	-88
2.22733	-88
2.23100	-88
2.23467	-88
2.23833	-87
2.24200	-86
2.24567	-86
2.24933	-85
2.25300	-85
2.25667	-85
2.26033	-85
2.26400	-85
2.26767	-85
2.27133	-85
2.27500	-85
2.27867	-85
2.28233	-85
2.28600	-85
2.28967	-85
2.29333	-85
2.29700	-85
2.30067	-85
2.30433	-85
2.30800	-84
2.31167	-84
2.31533	-83
2.31900	-82
2.32267	-82
2.32633	-82
2.33000	-82
2.33367	-82
2.33733	-81
2.34100	-81
2.34467	-80
2.34833	-79
2.35200	-78
2.35567	-77
2.35933	-77
2.36300	-75
2.36667	-74
2.37033	-72
2.37400	-70
2.37767	-67
2.38133	-64
2.38500	-60
2.38867	-57
2.39233	-52
2.39600	-48
2.39967	-43
2.40333	-39
2.40700	-34
2.41067	-29
2.41433	-25
2.41800	-22
2.42167	-19
2.42533	-17
2.42900	-15
2.43267	-13
2.43633	-12
2.44000	-11
2.44367	-10
2.44733	-10
2.45100	-9
2.45467	-8
2.45833	-7
2.46200	-6
2.46567	-5
2.46933	-3
2.47300	-2
2.47667	-1
2.48033	0
2.48400	1
2.48767	3
2.49133	4
2.49500	5
2.49867	6
2.50233	7
2.50600	7
2.50967	7
2.51333	7
2.51700	8
2.52067	8
2.52433	8
2.52800	8
2.53167	9
2.53533	10
2.53900	11
2.54267	11
2.54633	12
2.55000	12
2.55367	13
2.55733	14
2.56100	15
2.56467	15
2.56833	15
2.57200	15
2.57567	15
2.57933	14
2.58300	14
2.58667	13
2.59033	13
2.59400	13
2.59767	14
2.60133	15
2.60500	15
2.60867	16
2.61233	16
2.61600	16
2.61967	16
2.62333	16
2.62700	16
2.63067	16
2.63433	16
2.63800	16
2.64167	17
2.64533	17
2.64900	17
2.65267	17
2.65633	17
2.66000	18
2.66367	18
2.66733	19
2.67100	20
2.67467	20
2.67833	21
2.68200	21
2.68567	21
2.68933	21
2.69300	21
2.69667	21
2.70033	21
2.70400	21
2.70767	21
2.71133	21
2.71500	22
2.71867	23
2.72233	23
2.72600	24
2.72967	24
2.73333	25
2.73700	26
2.74067	26
2.74433	26
2.74800	26
2.75167	26
2.75533	26
2.75900	25
2.76267	25
2.76633	24
2.77000	24
2.77367	23
2.77733	23
2.78100	22
2.78467	22
2.78833	22
2.79200	22
2.79567	22
2.79933	22
2.80300	22
2.80667	22
2.81033	23
2.81400	23
2.81767	23
2.82133	23
2.82500	23
2.82867	24
2.83233	24
2.83600	24
2.83967	24
2.84333	23
2.84700	21
2.85067	17
2.85433	11
2.85800	3
2.86167	-9
2.86533	-25
2.86900	-45
2.87267	-70
2.87633	-99
2.88000	-133
2.88367	-171
2.88733	-212
2.89100	-257
2.89467	-305
2.89833	-356
2.90200	-408
2.90567	-462
2.90933	-517
2.91300	-573
2.91667	-628
2.92033	-683
2.92400	-738
2.92767	-790
2.93133	-842
2.93500	-894
2.93867	-951
2.94233	-1009
2.94600	-1060
2.94967	-1094
2.95333	-1104
2.95700	-1088
2.96067	-1048
2.96433	-990
2.96800	-919
2.97167	-841
2.97533	-760
2.97900	-680
2.98267	-603
2.98633	-531
2.99000	-465
2.99367	-404
2.99733	-350
3.00100	-302
3.00467	-259
3.00833	-221
3.01200	-188
3.01567	-160
3.01933	-135
3.02300	-114
3.02667	-96
3.03033	-80
3.03400	-66
3.03767	-55
3.04133	-45
3.04500	-37
3.04867	-29
3.05233	-23
3.05600	-18
3.05967	-13
3.06333	-9
3.06700	-5
3.07067	-2
3.07433	1
3.07800	3
3.08167	5
3.08533	6
3.08900	8
3.09267	9
3.09633	10
3.10000	11
3.10367	11
3.10733	12
3.11100	12
3.11467	12
3.11833	13
3.12200	13
3.12567	13
3.12933	14
3.13300	14
3.13667	14
3.14033	14
3.14400	15
3.14767	15
3.15133	16
3.15500	16
3.15867	16
3.16233	17
3.16600	17
3.16967	17
3.17333	17
3.17700	17
3.18067	17
3.18433	17
3.18800	18
3.19167	18
3.19533	18
3.19900	19
3.20267	19
3.20633	19
3.21000	19
3.21367	20
3.21733	20
3.22100	20
3.22467	21
3.22833	21
3.23200	21
3.23567	21
3.23933	21
3.24300	21
3.24667	21
3.25033	21
3.25400	21
3.25767	21
3.26133	21
3.26500	21
3.26867	21
3.27233	22
3.27600	22
3.27967	22
3.28333	22
3.28700	22
3.29067	23
3.29433	23
3.29800	23
3.30167	23
3.30533	23
3.30900	24
3.31267	24
3.31633	24
3.32000	24
3.32367	25
3.32733	25
3.33100	25
3.33467	25
3.33833	25
3.34200	25
3.34567	25
3.34933	25
3.35300	25
3.35667	25
3.36033	25
3.36400	25
3.36767	25
3.37133	25
3.37500	25
3.37867	25
3.38233	25
3.38600	25
3.38967	25
3.39333	25
3.39700	25
3.40067	25
3.40433	25
3.40800	25
3.41167	25
3.41533	25
3.41900	25
3.42267	25
3.42633	25
3.43000	25
3.43367	25
3.43733	25
3.44100	25
3.44467	25
3.44833	25
3.45200	25
3.45567	25
3.45933	25
3.46300	26
3.46667	26
3.47033	26
3.47400	26
3.47767	26
3.48133	25
3.48500	25
3.48867	25
3.49233	25
3.49600	25
3.49967	26
3.50333	26
3.50700	26
3.51067	26
3.51433	26
3.51800	26
3.52167	26
3.52533	26
3.52900	26
3.53267	25
3.53633	25
3.54000	25
3.54367	25
3.54733	25
3.55100	25
3.55467	25
3.55833	25
3.56200	25
3.56567	25
3.56933	25
3.57300	25
3.57667	25
3.58033	25
3.58400	25
3.58767	25
3.59133	25
3.59500	26
3.59867	26
3.60233	26
3.60600	26
3.60967	26
3.61333	25
3.61700	25
3.62067	25
3.62433	25
3.62800	25
3.63167	26
3.63533	26
3.63900	26
3.64267	26
3.64633	27
3.65000	27
3.65367	26
3.65733	26
3.66100	26
3.66467	26
3.66833	26
3.67200	26
3.67567	26
3.67933	26
3.68300	26
3.68667	26
3.69033	26
3.69400	26
3.69767	25
3.70133	25
3.70500	25
3.70867	24
3.71233	24
3.71600	24
3.71967	24
3.72333	24
3.72700	24
3.73067	24
3.73433	24
3.73800	24
3.74167	24
3.74533	24
3.74900	24
3.75267	23
3.75633	23
3.76000	23
3.76367	23
3.76733	24
3.77100	24
3.77467	24
3.77833	24
3.78200	24
3.78567	25
3.78933	25
3.79300	25
3.79667	25
3.80033	25
3.80400	25
3.80767	25
3.81133	24
3.81500	24
3.81867	24
3.82233	25
3.82600	25
3.82967	25
3.83333	25
3.83700	25
3.84067	26
3.84433	26
3.84800	26
3.85167	26
3.85533	26
3.85900	26
3.86267	26
3.86633	26
3.87000	27
3.87367	26
3.87733	26
3.88100	26
3.88467	26
3.88833	26
3.89200	26
3.89567	26
3.89933	26
3.90300	26
3.90667	26
3.91033	26
3.91400	26
3.91767	27
3.92133	27
3.92500	27
3.92867	27
3.93233	27
3.93600	27
3.93967	27
3.94333	26
3.94700	26
3.95067	26
3.95433	26
3.95800	26
3.96167	26
3.96533	26
3.96900	26
3.97267	26
3.97633	25
3.98000	25
3.98367	25
3.98733	25
3.99100	25
3.99467	25
3.99833	25

[Chromatogram (Ch3)]
Interval(msec)	220
# of Points	1091
Start Time(min)	0.002
End Time(min)	3.998
R.Time (min)	Intensity
0.00167	-0
0.00533	-1
0.00900	-0
0.01267	0
0.01633	-2
0.02000	-5
0.02367	-8
0.02733	-8
0.03100	-5
0.03467	-2
0.03833	-1
0.04200	-0
0.04567	-1
0.04933	-2
0.05300	-4
0.05667	-7
0.06033	-8
0.06400	-8
0.06767	-8
0.07133	-9
0.07500	-7
0.07867	-6
0.08233	-5
0.08600	-6
0.08967	-5
0.09333	-5
0.09700	-5
0.10067	-5
0.10433	-6
0.10800	-9
0.11167	-11
0.11533	-11
0.11900	-11
0.12267	-10
0.12633	-7
0.13000	-7
0.13367	-7
0.13733	-5
0.14100	-6
0.14467	-7
0.14833	-8
0.15200	-6
0.15567	-6
0.15933	-7
0.16300	-7
0.16667	-9
0.17033	-9
0.17400	-10
0.17767	-9
0.18133	-8
0.18500	-9
0.18867	-11
0.19233	-13
0.19600	-12
0.19967	-11
0.20333	-9
0.20700	-6
0.21067	-5
0.21433	-3
0.21800	-2
0.22167	-2
0.22533	-2
0.22900	-3
0.23267	-7
0.23633	-10
0.24000	-11
0.24367	-11
0.24733	-11
0.25100	-11
0.25467	-11
0.25833	-9
0.26200	-7
0.26567	-8
0.26933	-9
0.27300	-8
0.27667	-8
0.28033	-8
0.28400	-9
0.28767	-9
0.29133	-9
0.29500	-10
0.29867	-11
0.30233	-8
0.30600	-6
0.30967	-6
0.31333	-7
0.31700	-7
0.32067	-7
0.32433	-6
0.32800	-5
0.33167	-3
0.33533	-2
0.33900	-1
0.34267	-0
0.34633	-0
0.35000	-2
0.35367	-3
0.35733	-5
0.36100	-5
0.36467	-4
0.36833	-1
0.37200	1
0.37567	-1
0.37933	-1
0.38300	-2
0.38667	-5
0.39033	-5
0.39400	-4
0.39767	-5
0.40133	-7
0.40500	-8
0.40867	-8
0.41233	-8
0.41600	-7
0.41967	-6
0.42333	-5
0.42700	-5
0.43067	-5
0.43433	-5
0.43800	-6
0.44167	-8
0.44533	-9
0.44900	-8
0.45267	-9
0.45633	-10
0.46000	-9
0.46367	-9
0.46733	-8
0.47100	-8
0.47467	-8
0.47833	-6
0.48200	-4
0.48567	-5
0.48933	-7
0.49300	-7
0.49667	-5
0.50033	-6
0.50400	-7
0.50767	-7
0.51133	-6
0.51500	-5
0.51867	-5
0.52233	-7
0.52600	-9
0.52967	-11
0.53333	-12
0.53700	-11
0.54067	-12
0.54433	-11
0.54800	-9
0.55167	-7
0.55533	-4
0.55900	-3
0.56267	-2
0.56633	-4
0.57000	-5
0.57367	-5
0.57733	-2
0.58100	-1
0.58467	-1
0.58833	-1
0.59200	-2
0.59567	-4
0.59933	-5
0.60300	-5
0.60667	-4
0.61033	-3
0.61400	-2
0.61767	-2
0.62133	-2
0.62500	0
0.62867	1
0.63233	1
0.63600	0
0.63967	2
0.64333	2
0.64700	1
0.65067	0
0.65433	-2
0.65800	-4
0.66167	-6
0.66533	-4
0.66900	-2
0.67267	-2
0.67633	-0
0.68000	0
0.68367	-1
0.68733	-2
0.69100	-3
0.69467	-5
0.69833	-7
0.70200	-6
0.70567	-5
0.70933	-6
0.71300	-8
0.71667	-9
0.72033	-10
0.72400	-10
0.72767	-10
0.73133	-9
0.73500	-10
0.73867	-11
0.74233	-10
0.74600	-8
0.74967	-6
0.75333	-3
0.75700	-2
0.76067	-3
0.76433	-3
0.76800	-4
0.77167	-5
0.77533	-5
0.77900	-6
0.78267	-7
0.78633	-7
0.79000	-7
0.79367	-6
0.79733	-7
0.80100	-8
0.80467	-8
0.80833	-8
0.81200	-8
0.81567	-8
0.81933	-8
0.82300	-8
0.82667	-8
0.83033	-8
0.83400	-9
0.83767	-11
0.84133	-13
0.84500	-13
0.84867	-12
0.85233	-10
0.85600	-8
0.85967	-8
0.86333	-10
0.86700	-12
0.87067	-11
0.87433	-10
0.87800	-9
0.88167	-6
0.88533	-5
0.88900	-3
0.89267	-3
0.89633	-3
0.90000	-3
0.90367	-4
0.90733	-6
0.91100	-7
0.91467	-6
0.91833	-4
0.92200	-2
0.92567	-2
0.92933	-1
0.93300	-1
0.93667	-1
0.94033	-2
0.94400	-3
0.94767	-4
0.95133	-4
0.95500	-3
0.95867	-5
0.96233	-4
0.96600	-1
0.96967	3
0.97333	3
0.97700	2
0.98067	1
0.98433	-2
0.98800	-5
0.99167	-7
0.99533	-6
0.99900	-4
1.00267	-5
1.00633	-3
1.01000	-1
1.01367	-1
1.01733	-1
1.02100	-3
1.02467	-3
1.02833	-5
1.03200	-5
1.03567	-4
1.03933	-2
1.04300	-4
1.04667	-4
1.05033	-4
1.05400	-3
1.05767	-3
1.06133	-6
1.06500	-8
1.06867	-8
1.07233	-8
1.07600	-8
1.07967	-7
1.08333	-7
1.08700	-5
1.09067	-2
1.09433	-2
1.09800	-1
1.10167	1
1.10533	1
1.10900	-1
1.11267	-2
1.11633	-2
1.12000	-3
1.12367	-4
1.12733	-4
1.13100	-3
1.13467	-5
1.13833	-7
1.14200	-7
1.14567	-8
1.14933	-7
1.15300	-6
1.15667	-6
1.16033	-6
1.16400	-7
1.16767	-8
1.17133	-7
1.17500	-6
1.17867	-5
1.18233	-4
1.18600	-5
1.18967	-5
1.19333	-7
1.19700	-9
1.20067	-10
1.20433	-9
1.20800	-8
1.21167	-7
1.21533	-8
1.21900	-8
1.22267	-8
1.22633	-8
1.23000	-8
1.23367	-6
1.23733	-5
1.24100	-3
1.24467	-1
1.24833	1
1.25200	3
1.25567	3
1.25933	3
1.26300	2
1.26667	0
1.27033	-1
1.27400	-2
1.27767	-2
1.28133	-2
1.28500	-4
1.28867	-4
1.29233	-4
1.29600	-4
1.29967	-2
1.30333	-1
1.30700	-2
1.31067	-5
1.31433	-7
1.31800	-6
1.32167	-5
1.32533	-4
1.32900	-3
1.33267	-3
1.33633	-4
1.34000	-5
1.34367	-7
1.34733	-9
1.35100	-10
1.35467	-9
1.35833	-8
1.36200	-10
1.36567	-10
1.36933	-11
1.37300	-11
1.37667	-11
1.38033	-10
1.38400	-8
1.38767	-8
1.39133	-10
1.39500	-13
1.39867	-15
1.40233	-15
1.40600	-15
1.40967	-15
1.41333	-15
1.41700	-15
1.42067	-16
1.42433	-16
1.42800	-15
1.43167	-14
1.43533	-10
1.43900	-8
1.44267	-7
1.44633	-6
1.45000	-7
1.45367	-8
1.45733	-9
1.46100	-10
1.46467	-10
1.46833	-11
1.47200	-13
1.47567	-11
1.47933	-10
1.48300	-9
1.48667	-10
1.49033	-10
1.49400	-9
1.49767	-8
1.50133	-6
1.50500	-7
1.50867	-5
1.51233	-5
1.51600	-5
1.51967	-5
1.52333	-5
1.52700	-5
1.53067	-5
1.53433	-6
1.53800	-8
1.54167	-8
1.54533	-9
1.54900	-8
1.55267	-6
1.55633	-6
1.56000	-7
1.56367	-7
1.56733	-4
1.57100	-2
1.57467	-1
1.57833	0
1.58200	0
1.58567	0
1.58933	1
1.59300	2
1.59667	2
1.60033	2
1.60400	2
1.60767	2
1.61133	0
1.61500	0
1.61867	2
1.62233	5
1.62600	7
1.62967	9
1.63333	10
1.63700	10
1.64067	8
1.64433	8
1.64800	9
1.65167	11
1.65533	13
1.65900	15
1.66267	15
1.66633	15
1.67000	14
1.67367	12
1.67733	12
1.68100	14
1.68467	16
1.68833	16
1.69200	16
1.69567	18
1.69933	20
1.70300	21
1.70667	20
1.71033	20
1.71400	21
1.71767	23
1.72133	24
1.72500	25
1.72867	25
1.73233	28
1.73600	28
1.73967	27
1.74333	26
1.74700	28
1.75067	28
1.75433	29
1.75800	30
1.76167	32
1.76533	35
1.76900	34
1.77267	33
1.77633	33
1.78000	35
1.78367	35
1.78733	34
1.79100	35
1.79467	35
1.79833	35
1.80200	35
1.80567	35
1.80933	34
1.81300	34
1.81667	34
1.82033	33
1.82400	35
1.82767	38
1.83133	41
1.83500	42
1.83867	41
1.84233	41
1.84600	42
1.84967	42
1.85333	44
1.85700	46
1.86067	45
1.86433	45
1.86800	45
1.87167	45
1.87533	47
1.87900	48
1.88267	49
1.88633	51
1.89000	53
1.89367	55
1.89733	56
1.90100	57
1.90467	58
1.90833	59
1.91200	58
1.91567	59
1.91933	59
1.92300	59
1.92667	59
1.93033	61
1.93400	61
1.93767	64
1.94133	67
1.94500	69
1.94867	68
1.95233	67
1.95600	67
1.95967	68
1.96333	69
1.96700	70
1.97067	70
1.97433	72
1.97800	73
1.98167	75
1.98533	75
1.98900	75
1.99267	78
1.99633	79
2.00000	80
2.00367	82
2.00733	83
2.01100	86
2.01467	87
2.01833	86
2.02200	86
2.02567	85
2.02933	87
2.03300	90
2.03667	92
2.04033	94
2.04400	98
2.04767	102
2.05133	104
2.05500	105
2.05867	105
2.06233	103
2.06600	101
2.06967	103
2.07333	106
2.07700	108
2.08067	109
2.08433	109
2.08800	108
2.09167	110
2.09533	112
2.09900	114
2.10267	115
2.10633	114
2.11000	113
2.11367	115
2.11733	117
2.12100	120
2.12467	121
2.12833	121
2.13200	121
2.13567	123
2.13933	125
2.14300	127
2.14667	129
2.15033	129
2.15400	131
2.15767	132
2.16133	133
2.16500	134
2.16867	136
2.17233	138
2.17600	139
2.17967	140
2.18333	141
2.18700	141
2.19067	143
2.19433	144
2.19800	146
2.20167	150
2.20533	153
2.20900	155
2.21267	157
2.21633	159
2.22000	161
2.22367	162
2.22733	166
2.23100	169
2.23467	169
2.23833	170
2.24200	171
2.24567	172
2.24933	174
2.25300	175
2.25667	175
2.26033	176
2.26400	178
2.26767	181
2.27133	183
2.27500	184
2.27867	184
2.28233	185
2.28600	187
2.28967	191
2.29333	193
2.29700	194
2.30067	194
2.30433	195
2.30800	194
2.31167	195
2.31533	195
2.31900	195
2.32267	195
2.32633	196
2.33000	196
2.33367	196
2.33733	196
2.34100	197
2.34467	200
2.34833	201
2.35200	200
2.35567	198
2.35933	199
2.36300	201
2.36667	202
2.37033	202
2.37400	201
2.37767	200
2.38133	202
2.38500	203
2.38867	205
2.39233	204
2.39600	205
2.39967	206
2.40333	209
2.40700	212
2.41067	214
2.41433	217
2.41800	219
2.42167	222
2.42533	223
2.42900	224
2.43267	224
2.43633	221
2.44000	223
2.44367	282
2.44733	434
2.45100	596
2.45467	727
2.45833	799
2.46200	801
2.46567	761
2.46933	712
2.47300	670
2.47667	643
2.48033	625
2.48400	594
2.48767	548
2.49133	497
2.49500	451
2.49867	415
2.50233	386
2.50600	366
2.50967	358
2.51333	362
2.51700	378
2.52067	399
2.52433	420
2.52800	433
2.53167	434
2.53533	421
2.53900	398
2.54267	370
2.54633	338
2.55000	307
2.55367	278
2.55733	254
2.56100	236
2.56467	222
2.56833	213
2.57200	207
2.57567	202
2.57933	202
2.58300	201
2.58667	198
2.59033	197
2.59400	197
2.59767	197
2.60133	197
2.60500	195
2.60867	193
2.61233	190
2.61600	183
2.61967	176
2.62333	169
2.62700	164
2.63067	157
2.63433	149
2.63800	143
2.64167	136
2.64533	129
2.64900	123
2.65267	113
2.65633	100
2.66000	89
2.66367	80
2.66733	73
2.67100	65
2.67467	54
2.67833	44
2.68200	36
2.68567	31
2.68933	28
2.69300	27
2.69667	26
2.70033	26
2.70400	27
2.70767	28
2.71133	30
2.71500	29
2.71867	31
2.72233	36
2.72600	41
2.72967	46
2.73333	49
2.73700	50
2.74067	53
2.74433	54
2.74800	56
2.75167	60
2.75533	62
2.75900	65
2.76267	67
2.76633	68
2.77000	69
2.77367	70
2.77733	73
2.78100	77
2.78467	81
2.78833	84
2.79200	87
2.79567	90
2.79933	95
2.80300	100
2.80667	106
2.81033	109
2.81400	113
2.81767	122
2.82133	136
2.82500	157
2.82867	195
2.83233	263
2.83600	382
2.83967	578
2.84333	871
2.84700	1268
2.85067	1761
2.85433	2324
2.85800	2922
2.86167	3511
2.86533	4041
2.86900	4468
2.87267	4762
2.87633	4917
2.88000	4933
2.88367	4823
2.88733	4610
2.89100	4326
2.89467	4001
2.89833	3657
2.90200	3308
2.90567	2968
2.90933	2646
2.91300	2349
2.91667	2077
2.92033	1832
2.92400	1614
2.92767	1422
2.93133	1252
2.93500	1103
2.93867	972
2.94233	857
2.94600	756
2.94967	669
2.95333	593
2.95700	529
2.96067	473
2.96433	423
2.96800	380
2.97167	342
2.97533	310
2.97900	281
2.98267	258
2.98633	238
2.99000	219
2.99367	201
2.99733	186
3.00100	173
3.00467	162
3.00833	151
3.01200	143
3.01567	137
3.01933	132
3.02300	128
3.02667	124
3.03033	121
3.03400	109
3.03767	81
3.04133	61
3.04500	59
3.04867	69
3.05233	87
3.05600	108
3.05967	132
3.06333	167
3.06700	206
3.07067	248
3.07433	293
3.07800	338
3.08167	380
3.08533	419
3.08900	454
3.09267	484
3.09633	511
3.10000	532
3.10367	550
3.10733	565
3.11100	579
3.11467	593
3.11833	603
3.12200	610
3.12567	617
3.12933	624
3.13300	631
3.13667	635
3.14033	637
3.14400	641
3.14767	645
3.15133	650
3.15500	652
3.15867	656
3.16233	660
3.16600	665
3.16967	669
3.17333	675
3.17700	681
3.18067	686
3.18433	690
3.18800	693
3.19167	700
3.19533	704
3.19900	708
3.20267	715
3.20633	722
3.21000	730
3.21367	738
3.21733	744
3.22100	750
3.22467	755
3.22833	758
3.23200	764
3.23567	770
3.23933	777
3.24300	782
3.24667	787
3.25033	789
3.25400	792
3.25767	797
3.26133	802
3.26500	807
3.26867	810
3.27233	814
3.27600	819
3.27967	822
3.28333	824
3.28700	823
3.29067	819
3.29433	818
3.29800	820
3.30167	823
3.30533	824
3.30900	825
3.31267	827
3.31633	827
3.32000	825
3.32367	823
3.32733	821
3.33100	819
3.33467	817
3.33833	813
3.34200	808
3.34567	805
3.34933	802
3.35300	799
3.35667	798
3.36033	797
3.36400	795
3.36767	793
3.37133	793
3.37500	790
3.37867	786
3.38233	783
3.38600	781
3.38967	776
3.39333	772
3.39700	771
3.40067	770
3.40433	769
3.40800	769
3.41167	768
3.41533	765
3.41900	761
3.42267	758
3.42633	756
3.43000	755
3.43367	754
3.43733	753
3.44100	749
3.44467	747
3.44833	745
3.45200	743
3.45567	743
3.45933	742
3.46300	742
3.46667	740
3.47033	739
3.47400	739
3.47767	739
3.48133	737
3.48500	735
3.48867	735
3.49233	736
3.49600	735
3.49967	734
3.50333	731
3.50700	729
3.51067	727
3.51433	724
3.51800	723
3.52167	721
3.52533	720
3.52900	719
3.53267	716
3.53633	715
3.54000	714
3.54367	715
3.54733	717
3.55100	717
3.55467	715
3.55833	711
3.56200	709
3.56567	708
3.56933	708
3.57300	708
3.57667	709
3.58033	710
3.58400	710
3.58767	708
3.59133	706
3.59500	703
3.59867	701
3.60233	700
3.60600	702
3.60967	702
3.61333	701
3.61700	698
3.62067	694
3.62433	693
3.62800	691
3.63167	690
3.63533	689
3.63900	689
3.64267	688
3.64633	684
3.65000	681
3.65367	679
3.65733	678
3.66100	679
3.66467	677
3.66833	675
3.67200	673
3.67567	671
3.67933	669
3.68300	668
3.68667	666
3.69033	665
3.69400	663
3.69767	662
3.70133	658
3.70500	655
3.70867	653
3.71233	650
3.71600	648
3.71967	647
3.72333	645
3.72700	643
3.73067	642
3.73433	642
3.73800	639
3.74167	635
3.74533	631
3.74900	627
3.75267	624
3.75633	622
3.76000	620
3.76367	617
3.76733	616
3.77100	615
3.77467	614
3.77833	614
3.78200	614
3.78567	612
3.78933	608
3.79300	604
3.79667	601
3.80033	599
3.80400	597
3.80767	598
3.81133	600
3.81500	599
3.81867	598
3.82233	596
3.82600	592
3.82967	591
3.83333	590
3.83700	587
3.84067	582
3.84433	579
3.84800	578
3.85167	577
3.85533	576
3.85900	577
3.86267	579
3.86633	580
3.87000	580
3.87367	578
3.87733	576
3.88100	574
3.88467	572
3.88833	571
3.89200	569
3.89567	567
3.89933	565
3.90300	561
3.90667	561
3.91033	562
3.91400	562
3.91767	560
3.92133	557
3.92500	556
3.92867	553
3.93233	553
3.93600	554
3.93967	553
3.94333	550
3.94700	544
3.95067	543
3.95433	547
3.95800	549
3.96167	549
3.96533	548
3.96900	546
3.97267	545
3.97633	543
3.98000	540
3.98367	538
3.98733	537
3.99100	534
3.99467	531
3.99833	526

[Status Trace (Column Oven Temperature)]
Interval(msec)	1000
# of Points	240
Start Time(min)	0.013
End Time(min)	3.996
Intensity Units	
Intensity Multiplier	1
R.Time (min)	Intensity
0.01297	35.07
0.02963	35.06
0.04630	35.06
0.06297	35.07
0.07963	35.07
0.09630	35.06
0.11297	35.05
0.12963	35.04
0.14630	35.05
0.16297	35.05
0.17963	35.06
0.19630	35.04
0.21297	35.04
0.22963	35.04
0.24630	35.02
0.26297	35.03
0.27963	35.03
0.29630	35.03
0.31297	35.04
0.32963	35.05
0.34630	35.05
0.36297	35.03
0.37963	35.03
0.39630	35.02
0.41297	35.00
0.42963	34.99
0.44630	34.98
0.46297	34.98
0.47963	34.99
0.49630	34.99
0.51297	34.99
0.52963	34.99
0.54630	35.00
0.56297	35.00
0.57963	35.01
0.59630	35.01
0.61297	35.01
0.62963	35.01
0.64630	35.02
0.66297	35.02
0.67963	35.01
0.69630	35.01
0.71297	35.00
0.72963	34.99
0.74630	34.99
0.76297	34.99
0.77963	35.00
0.79630	35.01
0.81297	35.02
0.82963	35.01
0.84630	35.01
0.86297	35.01
0.87963	34.99
0.89630	34.99
0.91297	34.98
0.92963	34.99
0.94630	35.00
0.96297	34.99
0.97963	34.99
0.99630	34.99
1.01297	34.98
1.02963	34.99
1.04630	35.00
1.06297	35.00
1.07963	35.00
1.09630	35.00
1.11297	35.00
1.12963	34.99
1.14630	34.98
1.16297	34.98
1.17963	34.99
1.19630	35.00
1.21297	35.01
1.22963	35.02
1.24630	35.01
1.26297	35.01
1.27963	35.00
1.29630	34.99
1.31297	34.99
1.32963	34.99
1.34630	34.98
1.36297	34.99
1.37963	35.01
1.39630	35.00
1.41297	35.00
1.42963	35.00
1.44630	35.00
1.46297	34.99
1.47963	34.99
1.49630	34.98
1.51297	34.99
1.52963	34.99
1.54630	35.00
1.56297	35.00
1.57963	35.00
1.59630	35.03
1.61297	35.10
1.62963	35.24
1.64630	35.45
1.66297	35.73
1.67963	36.09
1.69630	36.46
1.71297	36.80
1.72963	37.10
1.74630	37.43
1.76297	37.78
1.77963	38.11
1.79630	38.44
1.81297	38.78
1.82963	39.12
1.84630	39.45
1.86297	39.76
1.87963	40.09
1.89630	40.42
1.91297	40.75
1.92963	41.07
1.94630	41.41
1.96297	41.74
1.97963	42.06
1.99630	42.37
2.01297	42.71
2.02963	43.04
2.04630	43.37
2.06297	43.69
2.07963	44.04
2.09630	44.33
2.11297	44.67
2.12963	44.99
2.14630	45.33
2.16297	45.64
2.17963	45.96
2.19630	46.29
2.21297	46.61
2.22963	46.93
2.24630	47.25
2.26297	47.59
2.27963	47.92
2.29630	48.26
2.31297	48.57
2.32963	48.93
2.34630	49.24
2.36297	49.53
2.37963	49.69
2.39630	49.73
2.41297	49.73
2.42963	49.72
2.44630	49.74
2.46297	49.74
2.47963	49.75
2.49630	49.75
2.51297	49.78
2.52963	49.78
2.54630	49.80
2.56297	49.80
2.57963	49.84
2.59630	49.84
2.61297	49.84
2.62963	49.85
2.64630	49.86
2.66297	49.85
2.67963	49.85
2.69630	49.86
2.71297	49.87
2.72963	49.85
2.74630	49.84
2.76297	49.86
2.77963	49.89
2.79630	49.90
2.81297	49.91
2.82963	49.92
2.84630	49.92
2.86297	49.92
2.87963	49.93
2.89630	49.93
2.91297	49.93
2.92963	49.94
2.94630	49.94
2.96297	49.96
2.97963	49.97
2.99630	50.00
3.01297	50.02
3.02963	50.02
3.04630	50.02
3.06297	50.02
3.07963	50.02
3.09630	50.03
3.11297	50.05
3.12963	50.06
3.14630	50.06
3.16297	50.07
3.17963	50.08
3.19630	50.08
3.21297	50.08
3.22963	50.08
3.24630	50.10
3.26297	50.11
3.27963	50.10
3.29630	50.10
3.31297	50.08
3.32963	50.07
3.34630	50.07
3.36297	50.06
3.37963	50.08
3.39630	50.07
3.41297	50.08
3.42963	50.07
3.44630	50.07
3.46297	50.06
3.47963	50.06
3.49630	50.06
3.51297	50.06
3.52963	50.06
3.54630	50.05
3.56297	50.06
3.57963	50.06
3.59630	50.05
3.61297	50.05
3.62963	50.05
3.64630	50.04
3.66297	50.04
3.67963	50.04
3.69630	50.06
3.71297	50.07
3.72963	50.07
3.74630	50.08
3.76297	50.09
3.77963	50.09
3.79630	50.09
3.81297	50.08
3.82963	50.08
3.84630	50.08
3.86297	50.07
3.87963	50.06
3.89630	50.06
3.91297	50.05
3.92963	50.05
3.94630	50.06
3.96297	50.06
3.97963	50.06
3.99630	50.05

[Status Trace (Injection Unit Temperature)]
Interval(msec)	1000
# of Points	240
Start Time(min)	0.013
End Time(min)	3.996
Intensity Units	
Intensity Multiplier	1
R.Time (min)	Intensity
0.01297	99.97
0.02963	99.97
0.04630	99.97
0.06297	99.98
0.07963	99.98
0.09630	99.98
0.11297	99.98
0.12963	99.98
0.14630	99.98
0.16297	99.98
0.17963	99.98
0.19630	99.98
0.21297	99.98
0.22963	99.98
0.24630	99.98
0.26297	99.98
0.27963	99.98
0.29630	99.98
0.31297	99.98
0.32963	99.99
0.34630	99.99
0.36297	99.98
0.37963	99.98
0.39630	99.98
0.41297	99.99
0.42963	99.99
0.44630	99.98
0.46297	99.99
0.47963	99.99
0.49630	99.98
0.51297	99.98
0.52963	99.99
0.54630	99.99
0.56297	99.99
0.57963	99.99
0.59630	99.99
0.61297	99.98
0.62963	99.98
0.64630	99.99
0.66297	99.99
0.67963	99.99
0.69630	99.98
0.71297	99.99
0.72963	99.99
0.74630	99.99
0.76297	99.99
0.77963	99.99
0.79630	99.99
0.81297	99.99
0.82963	99.98
0.84630	99.99
0.86297	99.99
0.87963	99.99
0.89630	99.99
0.91297	99.98
0.92963	99.99
0.94630	99.99
0.96297	99.98
0.97963	99.99
0.99630	99.98
1.01297	99.99
1.02963	99.98
1.04630	99.98
1.06297	99.98
1.07963	99.98
1.09630	99.98
1.11297	99.98
1.12963	99.99
1.14630	99.98
1.16297	99.98
1.17963	99.98
1.19630	99.98
1.21297	99.98
1.22963	99.98
1.24630	99.98
1.26297	99.98
1.27963	99.98
1.29630	99.98
1.31297	99.97
1.32963	99.98
1.34630	99.98
1.36297	99.98
1.37963	99.99
1.39630	99.99
1.41297	99.98
1.42963	99.99
1.44630	99.99
1.46297	99.99
1.47963	99.99
1.49630	99.98
1.51297	99.99
1.52963	99.99
1.54630	99.99
1.56297	99.99
1.57963	99.99
1.59630	99.99
1.61297	99.99
1.62963	99.98
1.64630	99.99
1.66297	99.99
1.67963	99.99
1.69630	99.99
1.71297	99.99
1.72963	99.99
1.74630	99.99
1.76297	99.99
1.77963	99.99
1.79630	99.99
1.81297	99.99
1.82963	99.99
1.84630	99.98
1.86297	99.99
1.87963	99.98
1.89630	99.98
1.91297	99.98
1.92963	99.98
1.94630	99.98
1.96297	99.98
1.97963	99.98
1.99630	99.98
2.01297	99.98
2.02963	99.98
2.04630	99.98
2.06297	99.98
2.07963	99.98
2.09630	99.98
2.11297	99.97
2.12963	99.97
2.14630	99.97
2.16297	99.97
2.17963	99.97
2.19630	99.97
2.21297	99.97
2.22963	99.97
2.24630	99.97
2.26297	99.97
2.27963	99.97
2.29630	99.97
2.31297	99.97
2.32963	99.97
2.34630	99.97
2.36297	99.97
2.37963	99.97
2.39630	99.97
2.41297	99.97
2.42963	99.97
2.44630	99.97
2.46297	99.96
2.47963	99.97
2.49630	99.97
2.51297	99.97
2.52963	99.97
2.54630	99.97
2.56297	99.97
2.57963	99.97
2.59630	99.97
2.61297	99.98
2.62963	99.98
2.64630	99.97
2.66297	99.97
2.67963	99.98
2.69630	99.98
2.71297	99.98
2.72963	99.98
2.74630	99.98
2.76297	99.99
2.77963	99.99
2.79630	99.99
2.81297	99.99
2.82963	99.99
2.84630	99.99
2.86297	99.99
2.87963	99.99
2.89630	100.00
2.91297	100.00
2.92963	100.00
2.94630	100.01
2.96297	100.01
2.97963	100.01
2.99630	100.01
3.01297	100.01
3.02963	100.01
3.04630	100.00
3.06297	100.01
3.07963	100.02
3.09630	100.02
3.11297	100.02
3.12963	100.02
3.14630	100.02
3.16297	100.02
3.17963	100.02
3.19630	100.02
3.21297	100.02
3.22963	100.03
3.24630	100.03
3.26297	100.03
3.27963	100.03
3.29630	100.03
3.31297	100.03
3.32963	100.03
3.34630	100.04
3.36297	100.04
3.37963	100.04
3.39630	100.03
3.41297	100.04
3.42963	100.04
3.44630	100.04
3.46297	100.04
3.47963	100.05
3.49630	100.04
3.51297	100.04
3.52963	100.04
3.54630	100.04
3.56297	100.04
3.57963	100.04
3.59630	100.05
3.61297	100.04
3.62963	100.04
3.64630	100.05
3.66297	100.05
3.67963	100.04
3.69630	100.05
3.71297	100.04
3.72963	100.04
3.74630	100.04
3.76297	100.05
3.77963	100.04
3.79630	100.05
3.81297	100.05
3.82963	100.04
3.84630	100.05
3.86297	100.04
3.87963	100.04
3.89630	100.05
3.91297	100.04
3.92963	100.05
3.94630	100.05
3.96297	100.05
3.97963	100.04
3.99630	100.05

[Status Trace (Carrier Gas Pressure)]
Interval(msec)	1000
# of Points	240
Start Time(min)	0.013
End Time(min)	3.996
Intensity Units	
Intensity Multiplier	1
R.Time (min)	Intensity
0.01297	57.95
0.02963	55.25
0.04630	57.76
0.06297	59.77
0.07963	58.75
0.09630	57.99
0.11297	57.99
0.12963	58.01
0.14630	58.01
0.16297	58.00
0.17963	58.00
0.19630	58.00
0.21297	58.00
0.22963	58.00
0.24630	58.00
0.26297	58.00
0.27963	58.00
0.29630	58.00
0.31297	58.00
0.32963	58.00
0.34630	58.00
0.36297	58.00
0.37963	58.00
0.39630	58.00
0.41297	58.00
0.42963	58.00
0.44630	58.00
0.46297	58.00
0.47963	58.00
0.49630	58.00
0.51297	58.00
0.52963	58.00
0.54630	58.00
0.56297	58.00
0.57963	58.00
0.59630	58.00
0.61297	58.00
0.62963	58.00
0.64630	58.00
0.66297	58.00
0.67963	58.00
0.69630	58.00
0.71297	58.00
0.72963	58.00
0.74630	58.00
0.76297	58.00
0.77963	58.00
0.79630	58.00
0.81297	58.00
0.82963	58.00
0.84630	58.00
0.86297	58.00
0.87963	58.00
0.89630	58.00
0.91297	58.00
0.92963	58.00
0.94630	58.00
0.96297	58.00
0.97963	58.00
0.99630	58.00
1.01297	58.00
1.02963	58.00
1.04630	58.00
1.06297	58.00
1.07963	58.00
1.09630	58.00
1.11297	58.00
1.12963	58.00
1.14630	58.00
1.16297	58.00
1.17963	58.00
1.19630	58.00
1.21297	58.00
1.22963	58.00
1.24630	58.00
1.26297	58.00
1.27963	58.00
1.29630	58.00
1.31297	58.00
1.32963	58.00
1.34630	58.00
1.36297	58.00
1.37963	58.00
1.39630	58.00
1.41297	58.00
1.42963	58.00
1.44630	58.00
1.46297	58.00
1.47963	58.00
1.49630	58.00
1.51297	58.00
1.52963	58.00
1.54630	58.00
1.56297	58.00
1.57963	58.00
1.59630	58.00
1.61297	58.00
1.62963	58.00
1.64630	58.00
1.66297	58.01
1.67963	58.01
1.69630	58.00
1.71297	58.00
1.72963	58.00
1.74630	58.00
1.76297	58.00
1.77963	58.00
1.79630	58.00
1.81297	58.00
1.82963	58.00
1.84630	58.00
1.86297	58.00
1.87963	58.00
1.89630	58.00
1.91297	58.00
1.92963	58.00
1.94630	58.00
1.96297	58.00
1.97963	58.00
1.99630	58.00
2.01297	58.00
2.02963	58.00
2.04630	58.00
2.06297	58.00
2.07963	58.00
2.09630	58.00
2.11297	58.00
2.12963	58.00
2.14630	58.00
2.16297	58.00
2.17963	58.00
2.19630	58.00
2.21297	58.00
2.22963	58.00
2.24630	58.00
2.26297	58.00
2.27963	58.00
2.29630	58.00
2.31297	58.00
2.32963	58.00
2.34630	58.00
2.36297	58.00
2.37963	57.99
2.39630	57.99
2.41297	57.99
2.42963	58.00
2.44630	58.00
2.46297	58.00
2.47963	58.00
2.49630	58.00
2.51297	57.99
2.52963	57.99
2.54630	58.00
2.56297	58.00
2.57963	58.00
2.59630	58.00
2.61297	58.00
2.62963	58.00
2.64630	58.00
2.66297	58.00
2.67963	58.00
2.69630	58.00
2.71297	58.00
2.72963	58.00
2.74630	58.00
2.76297	58.00
2.77963	58.00
2.79630	58.00
2.81297	58.00
2.82963	58.00
2.84630	58.00
2.86297	58.00
2.87963	58.00
2.89630	58.00
2.91297	58.00
2.92963	58.00
2.94630	58.00
2.96297	58.00
2.97963	58.00
2.99630	58.00
3.01297	58.00
3.02963	58.00
3.04630	58.00
3.06297	58.00
3.07963	58.00
3.09630	58.00
3.11297	58.00
3.12963	58.00
3.14630	58.00
3.16297	58.00
3.17963	58.00
3.19630	58.00
3.21297	58.00
3.22963	58.00
3.24630	58.00
3.26297	58.00
3.27963	58.00
3.29630	58.00
3.31297	58.00
3.32963	58.00
3.34630	58.00
3.36297	58.00
3.37963	58.00
3.39630	58.00
3.41297	58.00
3.42963	58.00
3.44630	58.00
3.46297	58.00
3.47963	58.00
3.49630	58.00
3.51297	58.00
3.52963	58.00
3.54630	58.00
3.56297	58.00
3.57963	58.00
3.59630	58.00
3.61297	58.00
3.62963	58.00
3.64630	58.00
3.66297	58.00
3.67963	58.00
3.69630	58.00
3.71297	58.00
3.72963	58.00
3.74630	58.00
3.76297	58.00
3.77963	58.00
3.79630	58.00
3.81297	58.00
3.82963	58.00
3.84630	58.00
3.86297	58.00
3.87963	58.00
3.89630	58.00
3.91297	58.00
3.92963	58.00
3.94630	58.00
3.96297	58.00
3.97963	58.00
3.99630	58.00

[Status Trace (Carrier Gas Flow)]
Interval(msec)	1000
# of Points	240
Start Time(min)	0.013
End Time(min)	3.996
Intensity Units	
Intensity Multiplier	1
R.Time (min)	Intensity
0.01297	34.68
0.02963	34.54
0.04630	34.54
0.06297	34.52
0.07963	34.51
0.09630	34.52
0.11297	34.52
0.12963	34.51
0.14630	34.52
0.16297	34.52
0.17963	34.52
0.19630	34.52
0.21297	34.53
0.22963	34.52
0.24630	34.51
0.26297	34.51
0.27963	34.51
0.29630	34.51
0.31297	34.52
0.32963	34.52
0.34630	34.52
0.36297	34.51
0.37963	34.52
0.39630	34.52
0.41297	34.52
0.42963	34.52
0.44630	34.52
0.46297	34.52
0.47963	34.52
0.49630	34.52
0.51297	34.52
0.52963	34.52
0.54630	34.52
0.56297	34.52
0.57963	34.52
0.59630	34.52
0.61297	34.51
0.62963	34.52
0.64630	34.52
0.66297	34.52
0.67963	34.52
0.69630	34.52
0.71297	34.52
0.72963	34.52
0.74630	34.52
0.76297	34.51
0.77963	34.52
0.79630	34.52
0.81297	34.51
0.82963	34.52
0.84630	34.52
0.86297	34.52
0.87963	34.52
0.89630	34.52
0.91297	34.52
0.92963	34.51
0.94630	34.52
0.96297	34.52
0.97963	34.52
0.99630	34.52
1.01297	34.52
1.02963	34.52
1.04630	34.52
1.06297	34.52
1.07963	34.52
1.09630	34.52
1.11297	34.52
1.12963	34.52
1.14630	34.52
1.16297	34.52
1.17963	34.52
1.19630	34.52
1.21297	34.52
1.22963	34.52
1.24630	34.52
1.26297	34.52
1.27963	34.53
1.29630	34.52
1.31297	34.52
1.32963	34.51
1.34630	34.52
1.36297	34.51
1.37963	34.52
1.39630	34.52
1.41297	34.53
1.42963	34.52
1.44630	34.52
1.46297	34.52
1.47963	34.52
1.49630	34.52
1.51297	34.51
1.52963	34.51
1.54630	34.52
1.56297	34.53
1.57963	34.52
1.59630	34.52
1.61297	34.52
1.62963	34.52
1.64630	34.52
1.66297	34.51
1.67963	34.52
1.69630	34.51
1.71297	34.52
1.72963	34.52
1.74630	34.52
1.76297	34.52
1.77963	34.52
1.79630	34.52
1.81297	34.51
1.82963	34.52
1.84630	34.52
1.86297	34.52
1.87963	34.52
1.89630	34.52
1.91297	34.52
1.92963	34.52
1.94630	34.52
1.96297	34.52
1.97963	34.52
1.99630	34.52
2.01297	34.52
2.02963	34.52
2.04630	34.52
2.06297	34.52
2.07963	34.52
2.09630	34.52
2.11297	34.52
2.12963	34.51
2.14630	34.52
2.16297	34.51
2.17963	34.52
2.19630	34.52
2.21297	34.52
2.22963	34.52
2.24630	34.51
2.26297	34.52
2.27963	34.52
2.29630	34.52
2.31297	34.52
2.32963	34.52
2.34630	34.52
2.36297	34.51
2.37963	34.52
2.39630	34.52
2.41297	34.52
2.42963	34.52
2.44630	34.52
2.46297	34.52
2.47963	34.52
2.49630	34.52
2.51297	34.53
2.52963	34.52
2.54630	34.52
2.56297	34.52
2.57963	34.51
2.59630	34.51
2.61297	34.53
2.62963	34.52
2.64630	34.52
2.66297	34.52
2.67963	34.51
2.69630	34.52
2.71297	34.52
2.72963	34.51
2.74630	34.52
2.76297	34.52
2.77963	34.52
2.79630	34.51
2.81297	34.52
2.82963	34.52
2.84630	34.52
2.86297	34.52
2.87963	34.52
2.89630	34.52
2.91297	34.51
2.92963	34.52
2.94630	34.52
2.96297	34.52
2.97963	34.52
2.99630	34.51
3.01297	34.52
3.02963	34.52
3.04630	34.52
3.06297	34.51
3.07963	34.52
3.09630	34.52
3.11297	34.52
3.12963	34.51
3.14630	34.52
3.16297	34.52
3.17963	34.52
3.19630	34.52
3.21297	34.52
3.22963	34.52
3.24630	34.52
3.26297	34.52
3.27963	34.52
3.29630	34.52
3.31297	34.52
3.32963	34.52
3.34630	34.53
3.36297	34.52
3.37963	34.52
3.39630	34.51
3.41297	34.52
3.42963	34.52
3.44630	34.52
3.46297	34.52
3.47963	34.52
3.49630	34.52
3.51297	34.52
3.52963	34.52
3.54630	34.52
3.56297	34.52
3.57963	34.52
3.59630	34.52
3.61297	34.52
3.62963	34.51
3.64630	34.52
3.66297	34.52
3.67963	34.52
3.69630	34.52
3.71297	34.52
3.72963	34.52
3.74630	34.52
3.76297	34.52
3.77963	34.52
3.79630	34.52
3.81297	34.52
3.82963	34.52
3.84630	34.52
3.86297	34.52
3.87963	34.52
3.89630	34.51
3.91297	34.51
3.92963	34.52
3.94630	34.52
3.96297	34.52
3.97963	34.52
3.99630	34.52

[Status Trace (Column Flow)]
Interval(msec)	1000
# of Points	240
Start Time(min)	0.013
End Time(min)	3.996
Intensity Units	
Intensity Multiplier	1
R.Time (min)	Intensity
0.01297	5.53
0.02963	5.22
0.04630	5.51
0.06297	5.74
0.07963	5.62
0.09630	5.53
0.11297	5.54
0.12963	5.54
0.14630	5.54
0.16297	5.54
0.17963	5.54
0.19630	5.54
0.21297	5.54
0.22963	5.54
0.24630	5.54
0.26297	5.54
0.27963	5.54
0.29630	5.54
0.31297	5.54
0.32963	5.54
0.34630	5.54
0.36297	5.54
0.37963	5.54
0.39630	5.54
0.41297	5.54
0.42963	5.54
0.44630	5.54
0.46297	5.54
0.47963	5.54
0.49630	5.54
0.51297	5.54
0.52963	5.54
0.54630	5.54
0.56297	5.54
0.57963	5.54
0.59630	5.54
0.61297	5.54
0.62963	5.54
0.64630	5.54
0.66297	5.54
0.67963	5.54
0.69630	5.54
0.71297	5.54
0.72963	5.54
0.74630	5.54
0.76297	5.54
0.77963	5.54
0.79630	5.54
0.81297	5.54
0.82963	5.54
0.84630	5.54
0.86297	5.54
0.87963	5.54
0.89630	5.54
0.91297	5.54
0.92963	5.54
0.94630	5.54
0.96297	5.54
0.97963	5.54
0.99630	5.54
1.01297	5.54
1.02963	5.54
1.04630	5.54
1.06297	5.54
1.07963	5.54
1.09630	5.54
1.11297	5.54
1.12963	5.54
1.14630	5.54
1.16297	5.54
1.17963	5.54
1.19630	5.54
1.21297	5.54
1.22963	5.54
1.24630	5.54
1.26297	5.54
1.27963	5.54
1.29630	5.54
1.31297	5.54
1.32963	5.54
1.34630	5.54
1.36297	5.54
1.37963	5.54
1.39630	5.54
1.41297	5.54
1.42963	5.54
1.44630	5.54
1.46297	5.54
1.47963	5.54
1.49630	5.54
1.51297	5.54
1.52963	5.54
1.54630	5.54
1.56297	5.54
1.57963	5.54
1.59630	5.54
1.61297	5.54
1.62963	5.53
1.64630	5.52
1.66297	5.52
1.67963	5.50
1.69630	5.49
1.71297	5.48
1.72963	5.47
1.74630	5.46
1.76297	5.45
1.77963	5.44
1.79630	5.43
1.81297	5.42
1.82963	5.41
1.84630	5.40
1.86297	5.39
1.87963	5.38
1.89630	5.37
1.91297	5.36
1.92963	5.35
1.94630	5.34
1.96297	5.33
1.97963	5.32
1.99630	5.31
2.01297	5.30
2.02963	5.29
2.04630	5.28
2.06297	5.27
2.07963	5.26
2.09630	5.25
2.11297	5.25
2.12963	5.24
2.14630	5.23
2.16297	5.22
2.17963	5.21
2.19630	5.20
2.21297	5.19
2.22963	5.18
2.24630	5.17
2.26297	5.16
2.27963	5.15
2.29630	5.14
2.31297	5.13
2.32963	5.12
2.34630	5.11
2.36297	5.11
2.37963	5.10
2.39630	5.10
2.41297	5.10
2.42963	5.10
2.44630	5.10
2.46297	5.10
2.47963	5.10
2.49630	5.10
2.51297	5.10
2.52963	5.10
2.54630	5.10
2.56297	5.10
2.57963	5.10
2.59630	5.10
2.61297	5.10
2.62963	5.10
2.64630	5.10
2.66297	5.10
2.67963	5.10
2.69630	5.10
2.71297	5.10
2.72963	5.10
2.74630	5.10
2.76297	5.10
2.77963	5.10
2.79630	5.10
2.81297	5.10
2.82963	5.10
2.84630	5.10
2.86297	5.10
2.87963	5.10
2.89630	5.10
2.91297	5.10
2.92963	5.10
2.94630	5.10
2.96297	5.09
2.97963	5.09
2.99630	5.09
3.01297	5.09
3.02963	5.09
3.04630	5.09
3.06297	5.09
3.07963	5.09
3.09630	5.09
3.11297	5.09
3.12963	5.09
3.14630	5.09
3.16297	5.09
3.17963	5.09
3.19630	5.09
3.21297	5.09
3.22963	5.09
3.24630	5.09
3.26297	5.09
3.27963	5.09
3.29630	5.09
3.31297	5.09
3.32963	5.09
3.34630	5.09
3.36297	5.09
3.37963	5.09
3.39630	5.09
3.41297	5.09
3.42963	5.09
3.44630	5.09
3.46297	5.09
3.47963	5.09
3.49630	5.09
3.51297	5.09
3.52963	5.09
3.54630	5.09
3.56297	5.09
3.57963	5.09
3.59630	5.09
3.61297	5.09
3.62963	5.09
3.64630	5.09
3.66297	5.09
3.67963	5.09
3.69630	5.09
3.71297	5.09
3.72963	5.09
3.74630	5.09
3.76297	5.09
3.77963	5.09
3.79630	5.09
3.81297	5.09
3.82963	5.09
3.84630	5.09
3.86297	5.09
3.87963	5.09
3.89630	5.09
3.91297	5.09
3.92963	5.09
3.94630	5.09
3.96297	5.09
3.97963	5.09
3.99630	5.09

[Status Trace (Linear Velocity)]
Interval(msec)	1000
# of Points	240
Start Time(min)	0.013
End Time(min)	3.996
Intensity Units	
Intensity Multiplier	1
R.Time (min)	Intensity
0.01297	38.98
0.02963	37.21
0.04630	38.86
0.06297	40.17
0.07963	39.51
0.09630	39.01
0.11297	39.01
0.12963	39.02
0.14630	39.02
0.16297	39.02
0.17963	39.02
0.19630	39.02
0.21297	39.02
0.22963	39.02
0.24630	39.02
0.26297	39.02
0.27963	39.02
0.29630	39.02
0.31297	39.02
0.32963	39.02
0.34630	39.02
0.36297	39.02
0.37963	39.02
0.39630	39.02
0.41297	39.02
0.42963	39.02
0.44630	39.02
0.46297	39.02
0.47963	39.02
0.49630	39.02
0.51297	39.02
0.52963	39.02
0.54630	39.02
0.56297	39.02
0.57963	39.02
0.59630	39.02
0.61297	39.02
0.62963	39.02
0.64630	39.02
0.66297	39.02
0.67963	39.02
0.69630	39.02
0.71297	39.02
0.72963	39.02
0.74630	39.02
0.76297	39.02
0.77963	39.02
0.79630	39.02
0.81297	39.02
0.82963	39.02
0.84630	39.02
0.86297	39.02
0.87963	39.02
0.89630	39.02
0.91297	39.02
0.92963	39.02
0.94630	39.02
0.96297	39.02
0.97963	39.02
0.99630	39.02
1.01297	39.02
1.02963	39.02
1.04630	39.02
1.06297	39.02
1.07963	39.02
1.09630	39.02
1.11297	39.02
1.12963	39.02
1.14630	39.02
1.16297	39.02
1.17963	39.02
1.19630	39.02
1.21297	39.02
1.22963	39.02
1.24630	39.02
1.26297	39.02
1.27963	39.02
1.29630	39.02
1.31297	39.02
1.32963	39.02
1.34630	39.02
1.36297	39.02
1.37963	39.02
1.39630	39.02
1.41297	39.02
1.42963	39.02
1.44630	39.02
1.46297	39.02
1.47963	39.02
1.49630	39.02
1.51297	39.02
1.52963	39.02
1.54630	39.02
1.56297	39.02
1.57963	39.02
1.59630	39.02
1.61297	39.01
1.62963	39.00
1.64630	38.98
1.66297	38.95
1.67963	38.92
1.69630	38.88
1.71297	38.85
1.72963	38.82
1.74630	38.79
1.76297	38.76
1.77963	38.72
1.79630	38.69
1.81297	38.66
1.82963	38.63
1.84630	38.60
1.86297	38.57
1.87963	38.54
1.89630	38.51
1.91297	38.48
1.92963	38.45
1.94630	38.41
1.96297	38.38
1.97963	38.35
1.99630	38.33
2.01297	38.29
2.02963	38.26
2.04630	38.23
2.06297	38.20
2.07963	38.17
2.09630	38.14
2.11297	38.12
2.12963	38.09
2.14630	38.05
2.16297	38.03
2.17963	38.00
2.19630	37.97
2.21297	37.94
2.22963	37.91
2.24630	37.88
2.26297	37.85
2.27963	37.82
2.29630	37.79
2.31297	37.76
2.32963	37.73
2.34630	37.70
2.36297	37.68
2.37963	37.66
2.39630	37.65
2.41297	37.66
2.42963	37.66
2.44630	37.66
2.46297	37.66
2.47963	37.66
2.49630	37.66
2.51297	37.65
2.52963	37.65
2.54630	37.65
2.56297	37.65
2.57963	37.65
2.59630	37.65
2.61297	37.65
2.62963	37.65
2.64630	37.65
2.66297	37.65
2.67963	37.65
2.69630	37.65
2.71297	37.65
2.72963	37.65
2.74630	37.65
2.76297	37.65
2.77963	37.65
2.79630	37.65
2.81297	37.64
2.82963	37.64
2.84630	37.64
2.86297	37.64
2.87963	37.64
2.89630	37.64
2.91297	37.64
2.92963	37.64
2.94630	37.64
2.96297	37.64
2.97963	37.64
2.99630	37.64
3.01297	37.63
3.02963	37.63
3.04630	37.63
3.06297	37.63
3.07963	37.63
3.09630	37.63
3.11297	37.63
3.12963	37.63
3.14630	37.63
3.16297	37.63
3.17963	37.63
3.19630	37.63
3.21297	37.63
3.22963	37.63
3.24630	37.63
3.26297	37.63
3.27963	37.63
3.29630	37.63
3.31297	37.63
3.32963	37.63
3.34630	37.63
3.36297	37.63
3.37963	37.63
3.39630	37.63
3.41297	37.63
3.42963	37.63
3.44630	37.63
3.46297	37.63
3.47963	37.63
3.49630	37.63
3.51297	37.63
3.52963	37.63
3.54630	37.63
3.56297	37.63
3.57963	37.63
3.59630	37.63
3.61297	37.63
3.62963	37.63
3.64630	37.63
3.66297	37.63
3.67963	37.63
3.69630	37.63
3.71297	37.63
3.72963	37.63
3.74630	37.63
3.76297	37.63
3.77963	37.63
3.79630	37.63
3.81297	37.63
3.82963	37.63
3.84630	37.63
3.86297	37.63
3.87963	37.63
3.89630	37.63
3.91297	37.63
3.92963	37.63
3.94630	37.63
3.96297	37.63
3.97963	37.63
3.99630	37.63

