[Header]
Application Name	LabSolutions
Version	5.110
Data File Name	C:\Users\User\Desktop\GC Analyses\Jack\Nachusa Grasslands Sampling\T3 Timepoint July 12th\T3_07122022_021.gcd
Output Date	3/14/2023
Output Time	3:43:31 PM

[File Information]
Type	Data File
Generated	3/13/2023 4:44:06 PM
Generated by	System Administrator
Modified	3/13/2023 4:50:40 PM
Modified by	System Administrator

[Sample Information]
Operator Name	System Administrator
Acquired	3/13/2023 4:46:39 PM
Sample Type	0:Unknown
Level	0
Sample Name	021
Sample ID	021
ISTD Amount1	1
ISTD Amount2	1
ISTD Amount3	1
ISTD Amount4	1
ISTD Amount5	1
ISTD Amount6	1
ISTD Amount7	1
ISTD Amount8	1
ISTD Amount9	1
ISTD Amount10	1
ISTD Amount11	1
ISTD Amount12	1
ISTD Amount13	1
ISTD Amount14	1
ISTD Amount15	1
ISTD Amount16	1
ISTD Amount17	1
ISTD Amount18	1
ISTD Amount19	1
ISTD Amount20	1
ISTD Amount21	1
ISTD Amount22	1
ISTD Amount23	1
ISTD Amount24	1
ISTD Amount25	1
ISTD Amount26	1
ISTD Amount27	1
ISTD Amount28	1
ISTD Amount29	1
ISTD Amount30	1
ISTD Amount31	1
ISTD Amount32	1
Sample Amount	1
Dilution Factor	1
Vial#	20
Injection Volume	1
Injection Count	1
Bar Code	

[Original Files]
Data File	C:\Users\User\Desktop\GC Analyses\Jack\Nachusa Grasslands Sampling\T3 Timepoint July 12th\T3_07122022_021.gcd
Method File	C:\LabSolutions\Data\GHG_4min_2022\ghg3_togas_w_acet_4 min_new_int.gcm
Batch File	C:\LabSolutions\Data\AutoSamplerTesting\T3_07122022.gcb
Report Format File	c:\LabSolutions\System\DEFAULT.lsr

[File Description]


[Configuration]
Instrument Name	C0B7VH3-Instrument1
Instrument #	1
Line #	1
# of Detectors	3
Detector ID	DET#1	DET#2	DET#3
Detector Name	FID	PTCD	ECD
# of Channels	1	1	1

[Peak Table(Ch1)]
# of Peaks	3
Peak#	R.Time	I.Time	F.Time	Area	Height	A/H	Conc.	Mark	ID#	Name	k'	Plate #	Plate Ht.	Tailing	Resolution	Sep.Factor	Area Ratio	Height Ratio	Conc. %	Norm Conc.
1	1.476	1.410	1.538	45213	22216	2.035	319.204	   	1	CO	0.000	9646	15.550	1.277	0.000	0.000	0	0	29.895	29.895
2	1.571	1.538	1.611	4029	2127	1.894	77.903	   	2	CH4	0.065	12133	12.363	1.101	1.628	0.000	0	0	7.296	7.296
3	2.000	1.952	2.308	2672183	1286019	2.078	670.646	   	3	CO2	0.355	17543	8.550	1.185	7.305	5.500	0	0	62.809	62.809

[Peak Table(Ch2)]
# of Peaks	0

[Peak Table(Ch3)]
# of Peaks	5
Peak#	R.Time	I.Time	F.Time	Area	Height	A/H	Conc.	Mark	ID#	Name	k'	Plate #	Plate Ht.	Tailing	Resolution	Sep.Factor	Area Ratio	Height Ratio	Conc. %	Norm Conc.
1	2.462	2.286	2.510	1938	547	3.542	0.000	   			0.000	10095	14.859	0.000	0.000	0.000	0	0	0.000	0.000
2	2.528	2.510	2.583	946	307	3.080	0.000	 V 			0.027	5181	28.951	0.000	0.553	0.000	0	0	0.000	0.000
3	2.605	2.583	2.671	465	150	3.100	0.000	 V 			0.058	1336	112.279	0.000	0.362	2.167	0	0	0.000	0.000
4	2.880	2.697	3.071	18137	4719	3.843	0.463	   	1	N2O	0.170	13271	11.303	1.524	1.428	2.923	0	0	100.000	100.000
5	3.448	3.335	3.962	12028	561	21.443	0.000	   	2	SF6	0.401	481	312.126	2.764	1.559	2.360	0	0	0.000	0.000

[Compound Results(Ch1)]
# of IDs	6
ID#	Name	R.Time	Area	Height	Conc.	Curve	3rd	2nd	1st	Constant	Area Ratio	Height Ratio	Conc. %	Norm Conc.
1	CO	1.476	45213	22216	319.204	Linear	0.000000e+00	0.000000e+00	1.416423e+002	0.000000e+00	0	0	29.895	29.895
2	CH4	1.571	4029	2127	77.903	Linear	0.000000e+00	0.000000e+00	5.171738e+001	0.000000e+00	0	0	7.296	7.296
3	CO2	2.000	2672183	1286019	670.646	Linear	0.000000e+00	0.000000e+00	3.984494e+003	0.000000e+00	0	0	62.809	62.809
4	Ethylene	0.000	0	0	0.000	Linear	0.000000e+00	0.000000e+00	0.000000e+00	0.000000e+00	0	0	0.000	0.000
5	Acetylene	0.000	0	0	0.000	Linear	0.000000e+00	0.000000e+00	0.000000e+00	0.000000e+00	0	0	0.000	0.000
6	Ethane	0.000	0	0	0.000	Linear	0.000000e+00	0.000000e+00	0.000000e+00	0.000000e+00	0	0	0.000	0.000

[Compound Results(Ch2)]
# of IDs	5
ID#	Name	R.Time	Area	Height	Conc.	Curve	3rd	2nd	1st	Constant	Area Ratio	Height Ratio	Conc. %	Norm Conc.
1	Hydrogen	0.000	0	0	0.000	Linear	0.000000e+00	0.000000e+00	0.000000e+00	0.000000e+00	0	0	0.000	0.000
2	Oxygen	0.000	0	0	0.000	Linear	0.000000e+00	0.000000e+00	0.000000e+00	0.000000e+00	0	0	0.000	0.000
3	Nitrogen	0.000	0	0	0.000	Linear	0.000000e+00	0.000000e+00	0.000000e+00	0.000000e+00	0	0	0.000	0.000
4	Methane	0.000	0	0	0.000	Linear	0.000000e+00	0.000000e+00	0.000000e+00	0.000000e+00	0	0	0.000	0.000
5	Carbon Monoxide	0.000	0	0	0.000	Linear	0.000000e+00	0.000000e+00	0.000000e+00	0.000000e+00	0	0	0.000	0.000

[Compound Results(Ch3)]
# of IDs	2
ID#	Name	R.Time	Area	Height	Conc.	Curve	3rd	2nd	1st	Constant	Area Ratio	Height Ratio	Conc. %	Norm Conc.
1	N2O	2.880	18137	4719	0.463	Linear	0.000000e+00	0.000000e+00	3.915173e+004	0.000000e+00	0	0	100.000	100.000
2	SF6	3.448	12028	561	0.000	Linear	0.000000e+00	0.000000e+00	0.000000e+00	0.000000e+00	0	0	0.000	0.000

[Group Results(Ch1)]
# of Groups	0

[Group Results(Ch2)]
# of Groups	0

[Group Results(Ch3)]
# of Groups	0

[Chromatogram (Ch1)]
Interval(msec)	220
# of Points	1091
Start Time(min)	0.002
End Time(min)	3.998
R.Time (min)	Intensity
0.00167	0
0.00533	-2
0.00900	-3
0.01267	-7
0.01633	-15
0.02000	-17
0.02367	-10
0.02733	1
0.03100	8
0.03467	8
0.03833	6
0.04200	6
0.04567	5
0.04933	5
0.05300	5
0.05667	5
0.06033	2
0.06400	-2
0.06767	-8
0.07133	-15
0.07500	-20
0.07867	-16
0.08233	-10
0.08600	-1
0.08967	5
0.09333	7
0.09700	8
0.10067	11
0.10433	14
0.10800	19
0.11167	25
0.11533	31
0.11900	27
0.12267	16
0.12633	3
0.13000	-4
0.13367	-8
0.13733	-9
0.14100	-6
0.14467	-9
0.14833	-11
0.15200	-16
0.15567	-19
0.15933	-21
0.16300	-22
0.16667	-16
0.17033	-10
0.17400	-6
0.17767	-1
0.18133	4
0.18500	2
0.18867	-2
0.19233	-6
0.19600	-5
0.19967	0
0.20333	5
0.20700	8
0.21067	16
0.21433	25
0.21800	30
0.22167	30
0.22533	24
0.22900	16
0.23267	12
0.23633	10
0.24000	8
0.24367	9
0.24733	15
0.25100	23
0.25467	30
0.25833	32
0.26200	30
0.26567	26
0.26933	24
0.27300	23
0.27667	14
0.28033	2
0.28400	0
0.28767	13
0.29133	35
0.29500	49
0.29867	44
0.30233	30
0.30600	18
0.30967	8
0.31333	0
0.31700	-4
0.32067	-4
0.32433	0
0.32800	1
0.33167	3
0.33533	12
0.33900	27
0.34267	39
0.34633	44
0.35000	48
0.35367	49
0.35733	46
0.36100	39
0.36467	31
0.36833	23
0.37200	18
0.37567	16
0.37933	21
0.38300	29
0.38667	39
0.39033	47
0.39400	50
0.39767	45
0.40133	37
0.40500	29
0.40867	27
0.41233	31
0.41600	36
0.41967	39
0.42333	43
0.42700	44
0.43067	39
0.43433	33
0.43800	29
0.44167	29
0.44533	33
0.44900	43
0.45267	53
0.45633	55
0.46000	49
0.46367	38
0.46733	26
0.47100	16
0.47467	10
0.47833	6
0.48200	5
0.48567	3
0.48933	1
0.49300	-1
0.49667	-1
0.50033	1
0.50400	4
0.50767	7
0.51133	11
0.51500	14
0.51867	10
0.52233	8
0.52600	11
0.52967	12
0.53333	10
0.53700	6
0.54067	6
0.54433	10
0.54800	10
0.55167	4
0.55533	-2
0.55900	-7
0.56267	-13
0.56633	-14
0.57000	-6
0.57367	3
0.57733	7
0.58100	6
0.58467	5
0.58833	6
0.59200	3
0.59567	-3
0.59933	-8
0.60300	-7
0.60667	-2
0.61033	4
0.61400	9
0.61767	14
0.62133	14
0.62500	9
0.62867	7
0.63233	11
0.63600	15
0.63967	18
0.64333	14
0.64700	4
0.65067	-1
0.65433	-3
0.65800	-9
0.66167	-15
0.66533	-15
0.66900	-11
0.67267	-7
0.67633	-6
0.68000	-3
0.68367	5
0.68733	11
0.69100	9
0.69467	2
0.69833	-5
0.70200	-12
0.70567	-17
0.70933	-21
0.71300	-18
0.71667	-6
0.72033	13
0.72400	26
0.72767	27
0.73133	21
0.73500	14
0.73867	11
0.74233	13
0.74600	14
0.74967	7
0.75333	-3
0.75700	-11
0.76067	-13
0.76433	-15
0.76800	-15
0.77167	-15
0.77533	-13
0.77900	-12
0.78267	-12
0.78633	-11
0.79000	-11
0.79367	-14
0.79733	-15
0.80100	-14
0.80467	-13
0.80833	-14
0.81200	-14
0.81567	-16
0.81933	-15
0.82300	-12
0.82667	-8
0.83033	-2
0.83400	2
0.83767	2
0.84133	1
0.84500	-4
0.84867	-11
0.85233	-18
0.85600	-23
0.85967	-25
0.86333	-25
0.86700	-23
0.87067	-18
0.87433	-11
0.87800	-4
0.88167	-3
0.88533	-7
0.88900	-14
0.89267	-16
0.89633	-9
0.90000	-4
0.90367	-3
0.90733	-6
0.91100	-14
0.91467	-16
0.91833	-10
0.92200	-3
0.92567	-0
0.92933	-1
0.93300	-3
0.93667	-6
0.94033	-7
0.94400	-0
0.94767	6
0.95133	7
0.95500	2
0.95867	-5
0.96233	-11
0.96600	-18
0.96967	-20
0.97333	-12
0.97700	-7
0.98067	-7
0.98433	-10
0.98800	-13
0.99167	-16
0.99533	-21
0.99900	-23
1.00267	-24
1.00633	-28
1.01000	-34
1.01367	-36
1.01733	-34
1.02100	-31
1.02467	-29
1.02833	-27
1.03200	-24
1.03567	-23
1.03933	-25
1.04300	-32
1.04667	-36
1.05033	-35
1.05400	-33
1.05767	-34
1.06133	-35
1.06500	-34
1.06867	-33
1.07233	-31
1.07600	-30
1.07967	-29
1.08333	-26
1.08700	-23
1.09067	-23
1.09433	-25
1.09800	-27
1.10167	-29
1.10533	-30
1.10900	-32
1.11267	-32
1.11633	-30
1.12000	-28
1.12367	-27
1.12733	-26
1.13100	-26
1.13467	-25
1.13833	-30
1.14200	-26
1.14567	-20
1.14933	-23
1.15300	-27
1.15667	-30
1.16033	-38
1.16400	-46
1.16767	-53
1.17133	-55
1.17500	-50
1.17867	-45
1.18233	-39
1.18600	-36
1.18967	-31
1.19333	-29
1.19700	-35
1.20067	-37
1.20433	-33
1.20800	-25
1.21167	-15
1.21533	-9
1.21900	-7
1.22267	-14
1.22633	-23
1.23000	-25
1.23367	-23
1.23733	-16
1.24100	-10
1.24467	-13
1.24833	-21
1.25200	-30
1.25567	-44
1.25933	-60
1.26300	-67
1.26667	-63
1.27033	-59
1.27400	-54
1.27767	-49
1.28133	-48
1.28500	-46
1.28867	-43
1.29233	-42
1.29600	-44
1.29967	-45
1.30333	-43
1.30700	-44
1.31067	-44
1.31433	-44
1.31800	-40
1.32167	-33
1.32533	-23
1.32900	-16
1.33267	-14
1.33633	-14
1.34000	-12
1.34367	-8
1.34733	-6
1.35100	-5
1.35467	-7
1.35833	-6
1.36200	-8
1.36567	-4
1.36933	7
1.37300	13
1.37667	15
1.38033	6
1.38400	-1
1.38767	-10
1.39133	-17
1.39500	-27
1.39867	-30
1.40233	-30
1.40600	-30
1.40967	-30
1.41333	-32
1.41700	-32
1.42067	-26
1.42433	-17
1.42800	-11
1.43167	-7
1.43533	-6
1.43900	1
1.44267	40
1.44633	228
1.45000	915
1.45367	2703
1.45733	6003
1.46100	10315
1.46467	14637
1.46833	18240
1.47200	20793
1.47567	22101
1.47933	21968
1.48300	20336
1.48667	17507
1.49033	14071
1.49400	10650
1.49767	7671
1.50133	5308
1.50500	3548
1.50867	2287
1.51233	1410
1.51600	815
1.51967	416
1.52333	153
1.52700	-13
1.53067	-115
1.53433	-172
1.53800	-195
1.54167	-167
1.54533	-39
1.54900	232
1.55267	622
1.55633	1052
1.56000	1440
1.56367	1739
1.56733	1926
1.57100	1972
1.57467	1856
1.57833	1597
1.58200	1254
1.58567	900
1.58933	589
1.59300	346
1.59667	172
1.60033	53
1.60400	-26
1.60767	-77
1.61133	-108
1.61500	-130
1.61867	-145
1.62233	-154
1.62600	-159
1.62967	-158
1.63333	-151
1.63700	-141
1.64067	-135
1.64433	-134
1.64800	-136
1.65167	-138
1.65533	-136
1.65900	-133
1.66267	-130
1.66633	-128
1.67000	-130
1.67367	-131
1.67733	-129
1.68100	-127
1.68467	-127
1.68833	-127
1.69200	-123
1.69567	-117
1.69933	-109
1.70300	-109
1.70667	-114
1.71033	-120
1.71400	-126
1.71767	-129
1.72133	-129
1.72500	-124
1.72867	-119
1.73233	-115
1.73600	-110
1.73967	-106
1.74333	-107
1.74700	-111
1.75067	-112
1.75433	-111
1.75800	-109
1.76167	-107
1.76533	-104
1.76900	-100
1.77267	-96
1.77633	-96
1.78000	-104
1.78367	-112
1.78733	-117
1.79100	-117
1.79467	-114
1.79833	-111
1.80200	-107
1.80567	-100
1.80933	-94
1.81300	-92
1.81667	-88
1.82033	-84
1.82400	-79
1.82767	-76
1.83133	-72
1.83500	-68
1.83867	-70
1.84233	-76
1.84600	-84
1.84967	-94
1.85333	-101
1.85700	-106
1.86067	-105
1.86433	-101
1.86800	-98
1.87167	-97
1.87533	-101
1.87900	-103
1.88267	-101
1.88633	-97
1.89000	-94
1.89367	-92
1.89733	-90
1.90100	-90
1.90467	-89
1.90833	-86
1.91200	-79
1.91567	-70
1.91933	-64
1.92300	-60
1.92667	-58
1.93033	-57
1.93400	-57
1.93767	-61
1.94133	-67
1.94500	-73
1.94867	-78
1.95233	-66
1.95600	30
1.95967	625
1.96333	3669
1.96700	15779
1.97067	52684
1.97433	138983
1.97800	294353
1.98167	513684
1.98533	763363
1.98900	997728
1.99267	1177637
1.99633	1277562
2.00000	1286003
2.00367	1207480
2.00733	1061411
2.01100	877293
2.01467	686366
2.01833	512836
2.02200	369704
2.02567	259811
2.02933	179689
2.03300	123349
2.03667	84688
2.04033	58556
2.04400	41020
2.04767	29267
2.05133	21358
2.05500	15984
2.05867	12276
2.06233	9668
2.06600	7799
2.06967	6436
2.07333	5416
2.07700	4640
2.08067	4034
2.08433	3550
2.08800	3159
2.09167	2837
2.09533	2569
2.09900	2342
2.10267	2147
2.10633	1977
2.11000	1834
2.11367	1715
2.11733	1605
2.12100	1502
2.12467	1409
2.12833	1326
2.13200	1254
2.13567	1189
2.13933	1131
2.14300	1076
2.14667	1025
2.15033	975
2.15400	933
2.15767	896
2.16133	864
2.16500	839
2.16867	824
2.17233	808
2.17600	788
2.17967	763
2.18333	732
2.18700	694
2.19067	655
2.19433	618
2.19800	584
2.20167	563
2.20533	555
2.20900	547
2.21267	535
2.21633	523
2.22000	515
2.22367	505
2.22733	490
2.23100	471
2.23467	457
2.23833	450
2.24200	446
2.24567	440
2.24933	430
2.25300	414
2.25667	400
2.26033	389
2.26400	382
2.26767	375
2.27133	368
2.27500	362
2.27867	357
2.28233	353
2.28600	349
2.28967	342
2.29333	338
2.29700	334
2.30067	329
2.30433	321
2.30800	314
2.31167	309
2.31533	312
2.31900	323
2.32267	334
2.32633	336
2.33000	331
2.33367	317
2.33733	303
2.34100	294
2.34467	287
2.34833	278
2.35200	273
2.35567	270
2.35933	267
2.36300	265
2.36667	263
2.37033	263
2.37400	262
2.37767	258
2.38133	253
2.38500	253
2.38867	254
2.39233	249
2.39600	238
2.39967	232
2.40333	230
2.40700	235
2.41067	238
2.41433	239
2.41800	239
2.42167	242
2.42533	243
2.42900	242
2.43267	241
2.43633	246
2.44000	251
2.44367	253
2.44733	253
2.45100	251
2.45467	246
2.45833	239
2.46200	231
2.46567	224
2.46933	221
2.47300	223
2.47667	220
2.48033	216
2.48400	212
2.48767	204
2.49133	194
2.49500	189
2.49867	190
2.50233	199
2.50600	207
2.50967	212
2.51333	213
2.51700	217
2.52067	225
2.52433	232
2.52800	231
2.53167	226
2.53533	221
2.53900	217
2.54267	211
2.54633	203
2.55000	196
2.55367	190
2.55733	179
2.56100	167
2.56467	164
2.56833	170
2.57200	176
2.57567	178
2.57933	177
2.58300	177
2.58667	177
2.59033	173
2.59400	165
2.59767	159
2.60133	161
2.60500	169
2.60867	179
2.61233	189
2.61600	194
2.61967	192
2.62333	187
2.62700	183
2.63067	180
2.63433	181
2.63800	181
2.64167	177
2.64533	175
2.64900	178
2.65267	182
2.65633	185
2.66000	186
2.66367	184
2.66733	180
2.67100	179
2.67467	178
2.67833	176
2.68200	171
2.68567	166
2.68933	161
2.69300	159
2.69667	163
2.70033	169
2.70400	177
2.70767	185
2.71133	189
2.71500	190
2.71867	188
2.72233	188
2.72600	190
2.72967	185
2.73333	177
2.73700	173
2.74067	173
2.74433	175
2.74800	173
2.75167	170
2.75533	169
2.75900	169
2.76267	173
2.76633	181
2.77000	187
2.77367	193
2.77733	196
2.78100	191
2.78467	185
2.78833	182
2.79200	182
2.79567	183
2.79933	181
2.80300	177
2.80667	174
2.81033	172
2.81400	173
2.81767	172
2.82133	169
2.82500	168
2.82867	166
2.83233	161
2.83600	158
2.83967	160
2.84333	166
2.84700	171
2.85067	171
2.85433	169
2.85800	170
2.86167	175
2.86533	180
2.86900	185
2.87267	192
2.87633	197
2.88000	193
2.88367	187
2.88733	184
2.89100	185
2.89467	185
2.89833	181
2.90200	176
2.90567	176
2.90933	172
2.91300	166
2.91667	162
2.92033	159
2.92400	158
2.92767	157
2.93133	161
2.93500	166
2.93867	167
2.94233	167
2.94600	167
2.94967	164
2.95333	165
2.95700	166
2.96067	162
2.96433	153
2.96800	145
2.97167	143
2.97533	148
2.97900	150
2.98267	151
2.98633	151
2.99000	153
2.99367	156
2.99733	158
3.00100	159
3.00467	158
3.00833	158
3.01200	158
3.01567	160
3.01933	164
3.02300	162
3.02667	156
3.03033	152
3.03400	149
3.03767	150
3.04133	154
3.04500	162
3.04867	167
3.05233	168
3.05600	165
3.05967	164
3.06333	163
3.06700	159
3.07067	155
3.07433	155
3.07800	162
3.08167	169
3.08533	169
3.08900	162
3.09267	156
3.09633	157
3.10000	164
3.10367	168
3.10733	167
3.11100	164
3.11467	164
3.11833	163
3.12200	159
3.12567	155
3.12933	151
3.13300	149
3.13667	150
3.14033	148
3.14400	142
3.14767	140
3.15133	144
3.15500	143
3.15867	137
3.16233	135
3.16600	139
3.16967	144
3.17333	149
3.17700	147
3.18067	141
3.18433	139
3.18800	138
3.19167	138
3.19533	138
3.19900	142
3.20267	147
3.20633	153
3.21000	160
3.21367	162
3.21733	158
3.22100	155
3.22467	152
3.22833	147
3.23200	143
3.23567	145
3.23933	143
3.24300	134
3.24667	124
3.25033	113
3.25400	105
3.25767	103
3.26133	103
3.26500	103
3.26867	104
3.27233	108
3.27600	112
3.27967	115
3.28333	118
3.28700	122
3.29067	124
3.29433	123
3.29800	120
3.30167	118
3.30533	118
3.30900	118
3.31267	113
3.31633	108
3.32000	103
3.32367	102
3.32733	107
3.33100	111
3.33467	112
3.33833	116
3.34200	116
3.34567	117
3.34933	114
3.35300	112
3.35667	110
3.36033	110
3.36400	113
3.36767	116
3.37133	116
3.37500	115
3.37867	116
3.38233	118
3.38600	119
3.38967	120
3.39333	125
3.39700	130
3.40067	133
3.40433	127
3.40800	117
3.41167	107
3.41533	103
3.41900	105
3.42267	109
3.42633	113
3.43000	116
3.43367	122
3.43733	123
3.44100	121
3.44467	117
3.44833	108
3.45200	101
3.45567	96
3.45933	97
3.46300	106
3.46667	119
3.47033	126
3.47400	122
3.47767	111
3.48133	102
3.48500	94
3.48867	85
3.49233	76
3.49600	73
3.49967	77
3.50333	86
3.50700	95
3.51067	103
3.51433	109
3.51800	110
3.52167	102
3.52533	93
3.52900	91
3.53267	92
3.53633	93
3.54000	96
3.54367	96
3.54733	94
3.55100	92
3.55467	88
3.55833	88
3.56200	91
3.56567	95
3.56933	96
3.57300	96
3.57667	97
3.58033	101
3.58400	101
3.58767	94
3.59133	87
3.59500	81
3.59867	75
3.60233	69
3.60600	63
3.60967	58
3.61333	57
3.61700	63
3.62067	69
3.62433	72
3.62800	73
3.63167	76
3.63533	80
3.63900	82
3.64267	81
3.64633	84
3.65000	86
3.65367	91
3.65733	93
3.66100	90
3.66467	88
3.66833	85
3.67200	81
3.67567	77
3.67933	70
3.68300	64
3.68667	57
3.69033	51
3.69400	50
3.69767	50
3.70133	51
3.70500	52
3.70867	53
3.71233	53
3.71600	54
3.71967	60
3.72333	73
3.72700	81
3.73067	80
3.73433	76
3.73800	69
3.74167	62
3.74533	56
3.74900	54
3.75267	55
3.75633	58
3.76000	62
3.76367	63
3.76733	65
3.77100	67
3.77467	65
3.77833	61
3.78200	57
3.78567	52
3.78933	53
3.79300	58
3.79667	62
3.80033	62
3.80400	62
3.80767	64
3.81133	66
3.81500	67
3.81867	64
3.82233	63
3.82600	68
3.82967	70
3.83333	67
3.83700	61
3.84067	54
3.84433	49
3.84800	48
3.85167	50
3.85533	55
3.85900	62
3.86267	64
3.86633	59
3.87000	51
3.87367	43
3.87733	37
3.88100	35
3.88467	40
3.88833	43
3.89200	45
3.89567	42
3.89933	39
3.90300	46
3.90667	60
3.91033	68
3.91400	65
3.91767	54
3.92133	46
3.92500	39
3.92867	34
3.93233	32
3.93600	38
3.93967	44
3.94333	46
3.94700	46
3.95067	46
3.95433	49
3.95800	53
3.96167	53
3.96533	50
3.96900	43
3.97267	38
3.97633	36
3.98000	34
3.98367	36
3.98733	37
3.99100	34
3.99467	31
3.99833	30

[Chromatogram (Ch2)]
Interval(msec)	220
# of Points	1091
Start Time(min)	0.002
End Time(min)	3.998
R.Time (min)	Intensity
0.00167	1
0.00533	1
0.00900	2
0.01267	2
0.01633	2
0.02000	2
0.02367	2
0.02733	2
0.03100	2
0.03467	1
0.03833	1
0.04200	1
0.04567	1
0.04933	1
0.05300	1
0.05667	1
0.06033	1
0.06400	2
0.06767	2
0.07133	2
0.07500	3
0.07867	3
0.08233	3
0.08600	4
0.08967	4
0.09333	4
0.09700	4
0.10067	4
0.10433	5
0.10800	5
0.11167	5
0.11533	5
0.11900	5
0.12267	4
0.12633	4
0.13000	4
0.13367	3
0.13733	3
0.14100	2
0.14467	2
0.14833	2
0.15200	1
0.15567	1
0.15933	1
0.16300	1
0.16667	0
0.17033	0
0.17400	0
0.17767	-0
0.18133	-0
0.18500	-0
0.18867	0
0.19233	0
0.19600	0
0.19967	1
0.20333	1
0.20700	1
0.21067	1
0.21433	1
0.21800	1
0.22167	1
0.22533	1
0.22900	1
0.23267	1
0.23633	1
0.24000	1
0.24367	0
0.24733	0
0.25100	-0
0.25467	-0
0.25833	0
0.26200	0
0.26567	0
0.26933	1
0.27300	1
0.27667	1
0.28033	1
0.28400	1
0.28767	2
0.29133	2
0.29500	2
0.29867	3
0.30233	3
0.30600	4
0.30967	4
0.31333	4
0.31700	5
0.32067	5
0.32433	5
0.32800	4
0.33167	4
0.33533	4
0.33900	3
0.34267	3
0.34633	3
0.35000	2
0.35367	2
0.35733	2
0.36100	1
0.36467	1
0.36833	1
0.37200	1
0.37567	0
0.37933	0
0.38300	-0
0.38667	-0
0.39033	-0
0.39400	-0
0.39767	-0
0.40133	-0
0.40500	0
0.40867	0
0.41233	1
0.41600	1
0.41967	1
0.42333	1
0.42700	1
0.43067	1
0.43433	0
0.43800	0
0.44167	1
0.44533	1
0.44900	1
0.45267	1
0.45633	1
0.46000	1
0.46367	1
0.46733	1
0.47100	1
0.47467	2
0.47833	2
0.48200	2
0.48567	2
0.48933	1
0.49300	1
0.49667	1
0.50033	1
0.50400	0
0.50767	0
0.51133	-0
0.51500	-0
0.51867	-0
0.52233	0
0.52600	-0
0.52967	-0
0.53333	0
0.53700	0
0.54067	1
0.54433	1
0.54800	1
0.55167	2
0.55533	2
0.55900	2
0.56267	2
0.56633	2
0.57000	1
0.57367	1
0.57733	1
0.58100	1
0.58467	2
0.58833	2
0.59200	2
0.59567	2
0.59933	2
0.60300	2
0.60667	2
0.61033	2
0.61400	2
0.61767	2
0.62133	2
0.62500	2
0.62867	2
0.63233	2
0.63600	2
0.63967	2
0.64333	2
0.64700	3
0.65067	3
0.65433	3
0.65800	3
0.66167	3
0.66533	3
0.66900	3
0.67267	3
0.67633	3
0.68000	3
0.68367	3
0.68733	3
0.69100	3
0.69467	3
0.69833	3
0.70200	3
0.70567	3
0.70933	3
0.71300	3
0.71667	3
0.72033	3
0.72400	3
0.72767	3
0.73133	3
0.73500	3
0.73867	3
0.74233	3
0.74600	3
0.74967	3
0.75333	3
0.75700	3
0.76067	4
0.76433	4
0.76800	4
0.77167	4
0.77533	3
0.77900	3
0.78267	3
0.78633	3
0.79000	3
0.79367	3
0.79733	3
0.80100	3
0.80467	3
0.80833	3
0.81200	2
0.81567	3
0.81933	3
0.82300	3
0.82667	3
0.83033	2
0.83400	2
0.83767	2
0.84133	1
0.84500	1
0.84867	1
0.85233	0
0.85600	0
0.85967	-0
0.86333	-0
0.86700	-1
0.87067	-1
0.87433	-1
0.87800	-1
0.88167	-1
0.88533	-1
0.88900	-1
0.89267	-1
0.89633	-1
0.90000	-1
0.90367	-1
0.90733	-1
0.91100	-1
0.91467	-1
0.91833	-1
0.92200	-1
0.92567	-0
0.92933	-0
0.93300	0
0.93667	1
0.94033	1
0.94400	1
0.94767	0
0.95133	0
0.95500	0
0.95867	0
0.96233	0
0.96600	0
0.96967	-0
0.97333	-0
0.97700	-0
0.98067	-0
0.98433	-0
0.98800	0
0.99167	0
0.99533	1
0.99900	1
1.00267	1
1.00633	1
1.01000	1
1.01367	1
1.01733	1
1.02100	1
1.02467	1
1.02833	0
1.03200	0
1.03567	0
1.03933	0
1.04300	0
1.04667	-0
1.05033	-0
1.05400	-0
1.05767	0
1.06133	1
1.06500	1
1.06867	1
1.07233	2
1.07600	2
1.07967	2
1.08333	3
1.08700	3
1.09067	2
1.09433	2
1.09800	2
1.10167	2
1.10533	2
1.10900	1
1.11267	1
1.11633	1
1.12000	1
1.12367	1
1.12733	0
1.13100	-0
1.13467	-0
1.13833	-1
1.14200	-1
1.14567	-1
1.14933	-1
1.15300	-1
1.15667	-2
1.16033	-2
1.16400	-2
1.16767	-2
1.17133	-2
1.17500	-2
1.17867	-1
1.18233	-1
1.18600	-1
1.18967	-1
1.19333	-1
1.19700	-1
1.20067	-1
1.20433	-1
1.20800	-1
1.21167	-1
1.21533	-1
1.21900	-1
1.22267	-0
1.22633	-0
1.23000	0
1.23367	1
1.23733	1
1.24100	1
1.24467	1
1.24833	1
1.25200	1
1.25567	1
1.25933	2
1.26300	2
1.26667	2
1.27033	2
1.27400	2
1.27767	2
1.28133	2
1.28500	2
1.28867	2
1.29233	2
1.29600	2
1.29967	2
1.30333	1
1.30700	1
1.31067	1
1.31433	0
1.31800	-0
1.32167	-1
1.32533	-1
1.32900	-1
1.33267	-1
1.33633	-1
1.34000	-0
1.34367	-0
1.34733	0
1.35100	0
1.35467	0
1.35833	0
1.36200	0
1.36567	1
1.36933	1
1.37300	1
1.37667	1
1.38033	1
1.38400	1
1.38767	1
1.39133	1
1.39500	1
1.39867	0
1.40233	-0
1.40600	-1
1.40967	-1
1.41333	-1
1.41700	-1
1.42067	-2
1.42433	-2
1.42800	-2
1.43167	-2
1.43533	-2
1.43900	-2
1.44267	-2
1.44633	-1
1.45000	-1
1.45367	-1
1.45733	-1
1.46100	-1
1.46467	-1
1.46833	-1
1.47200	-0
1.47567	0
1.47933	1
1.48300	1
1.48667	1
1.49033	1
1.49400	2
1.49767	2
1.50133	1
1.50500	1
1.50867	1
1.51233	1
1.51600	1
1.51967	2
1.52333	2
1.52700	2
1.53067	2
1.53433	2
1.53800	2
1.54167	2
1.54533	1
1.54900	1
1.55267	1
1.55633	1
1.56000	1
1.56367	0
1.56733	0
1.57100	0
1.57467	-0
1.57833	0
1.58200	0
1.58567	0
1.58933	1
1.59300	0
1.59667	-0
1.60033	-1
1.60400	-2
1.60767	-3
1.61133	-5
1.61500	-7
1.61867	-10
1.62233	-12
1.62600	-15
1.62967	-18
1.63333	-22
1.63700	-25
1.64067	-28
1.64433	-32
1.64800	-35
1.65167	-39
1.65533	-42
1.65900	-46
1.66267	-50
1.66633	-54
1.67000	-58
1.67367	-63
1.67733	-68
1.68100	-72
1.68467	-77
1.68833	-82
1.69200	-86
1.69567	-90
1.69933	-93
1.70300	-96
1.70667	-98
1.71033	-100
1.71400	-102
1.71767	-103
1.72133	-104
1.72500	-105
1.72867	-105
1.73233	-106
1.73600	-106
1.73967	-106
1.74333	-106
1.74700	-106
1.75067	-106
1.75433	-106
1.75800	-106
1.76167	-106
1.76533	-106
1.76900	-106
1.77267	-106
1.77633	-107
1.78000	-107
1.78367	-108
1.78733	-109
1.79100	-109
1.79467	-110
1.79833	-110
1.80200	-111
1.80567	-111
1.80933	-112
1.81300	-112
1.81667	-112
1.82033	-112
1.82400	-111
1.82767	-111
1.83133	-110
1.83500	-109
1.83867	-108
1.84233	-108
1.84600	-108
1.84967	-108
1.85333	-109
1.85700	-109
1.86067	-110
1.86433	-110
1.86800	-111
1.87167	-111
1.87533	-111
1.87900	-111
1.88267	-110
1.88633	-110
1.89000	-109
1.89367	-109
1.89733	-109
1.90100	-109
1.90467	-109
1.90833	-109
1.91200	-109
1.91567	-108
1.91933	-108
1.92300	-109
1.92667	-109
1.93033	-109
1.93400	-109
1.93767	-109
1.94133	-109
1.94500	-108
1.94867	-108
1.95233	-107
1.95600	-107
1.95967	-106
1.96333	-105
1.96700	-105
1.97067	-105
1.97433	-105
1.97800	-106
1.98167	-106
1.98533	-106
1.98900	-106
1.99267	-106
1.99633	-105
2.00000	-105
2.00367	-105
2.00733	-104
2.01100	-104
2.01467	-103
2.01833	-103
2.02200	-102
2.02567	-102
2.02933	-102
2.03300	-102
2.03667	-102
2.04033	-101
2.04400	-101
2.04767	-101
2.05133	-101
2.05500	-101
2.05867	-100
2.06233	-99
2.06600	-99
2.06967	-99
2.07333	-98
2.07700	-98
2.08067	-97
2.08433	-97
2.08800	-97
2.09167	-97
2.09533	-97
2.09900	-97
2.10267	-97
2.10633	-96
2.11000	-96
2.11367	-96
2.11733	-96
2.12100	-95
2.12467	-95
2.12833	-95
2.13200	-94
2.13567	-93
2.13933	-93
2.14300	-92
2.14667	-91
2.15033	-91
2.15400	-90
2.15767	-91
2.16133	-91
2.16500	-91
2.16867	-91
2.17233	-91
2.17600	-91
2.17967	-90
2.18333	-89
2.18700	-89
2.19067	-88
2.19433	-88
2.19800	-88
2.20167	-88
2.20533	-88
2.20900	-88
2.21267	-88
2.21633	-87
2.22000	-86
2.22367	-86
2.22733	-86
2.23100	-85
2.23467	-85
2.23833	-85
2.24200	-85
2.24567	-85
2.24933	-85
2.25300	-85
2.25667	-85
2.26033	-85
2.26400	-84
2.26767	-83
2.27133	-82
2.27500	-82
2.27867	-81
2.28233	-81
2.28600	-81
2.28967	-81
2.29333	-81
2.29700	-80
2.30067	-80
2.30433	-80
2.30800	-80
2.31167	-80
2.31533	-80
2.31900	-80
2.32267	-80
2.32633	-79
2.33000	-79
2.33367	-79
2.33733	-78
2.34100	-78
2.34467	-77
2.34833	-77
2.35200	-76
2.35567	-75
2.35933	-73
2.36300	-72
2.36667	-70
2.37033	-67
2.37400	-64
2.37767	-61
2.38133	-58
2.38500	-54
2.38867	-50
2.39233	-46
2.39600	-42
2.39967	-37
2.40333	-33
2.40700	-29
2.41067	-25
2.41433	-22
2.41800	-19
2.42167	-17
2.42533	-15
2.42900	-13
2.43267	-11
2.43633	-9
2.44000	-8
2.44367	-6
2.44733	-6
2.45100	-5
2.45467	-5
2.45833	-4
2.46200	-3
2.46567	-2
2.46933	-1
2.47300	0
2.47667	2
2.48033	3
2.48400	4
2.48767	5
2.49133	6
2.49500	7
2.49867	8
2.50233	8
2.50600	9
2.50967	10
2.51333	10
2.51700	11
2.52067	12
2.52433	13
2.52800	14
2.53167	14
2.53533	15
2.53900	15
2.54267	15
2.54633	15
2.55000	16
2.55367	16
2.55733	17
2.56100	17
2.56467	17
2.56833	16
2.57200	16
2.57567	16
2.57933	15
2.58300	16
2.58667	16
2.59033	16
2.59400	16
2.59767	17
2.60133	17
2.60500	17
2.60867	17
2.61233	18
2.61600	18
2.61967	18
2.62333	18
2.62700	18
2.63067	18
2.63433	18
2.63800	18
2.64167	18
2.64533	18
2.64900	18
2.65267	18
2.65633	19
2.66000	20
2.66367	20
2.66733	21
2.67100	21
2.67467	22
2.67833	22
2.68200	22
2.68567	22
2.68933	23
2.69300	23
2.69667	24
2.70033	24
2.70400	25
2.70767	25
2.71133	26
2.71500	26
2.71867	26
2.72233	26
2.72600	25
2.72967	25
2.73333	25
2.73700	25
2.74067	24
2.74433	25
2.74800	25
2.75167	25
2.75533	25
2.75900	26
2.76267	26
2.76633	26
2.77000	27
2.77367	27
2.77733	28
2.78100	28
2.78467	29
2.78833	29
2.79200	29
2.79567	29
2.79933	29
2.80300	29
2.80667	29
2.81033	29
2.81400	29
2.81767	29
2.82133	30
2.82500	30
2.82867	30
2.83233	30
2.83600	30
2.83967	30
2.84333	28
2.84700	26
2.85067	23
2.85433	17
2.85800	8
2.86167	-4
2.86533	-20
2.86900	-40
2.87267	-64
2.87633	-93
2.88000	-126
2.88367	-164
2.88733	-205
2.89100	-250
2.89467	-298
2.89833	-348
2.90200	-401
2.90567	-455
2.90933	-511
2.91300	-566
2.91667	-622
2.92033	-678
2.92400	-733
2.92767	-787
2.93133	-839
2.93500	-892
2.93867	-949
2.94233	-1008
2.94600	-1059
2.94967	-1092
2.95333	-1100
2.95700	-1082
2.96067	-1041
2.96433	-982
2.96800	-911
2.97167	-833
2.97533	-752
2.97900	-671
2.98267	-594
2.98633	-522
2.99000	-455
2.99367	-395
2.99733	-341
3.00100	-293
3.00467	-250
3.00833	-213
3.01200	-180
3.01567	-152
3.01933	-128
3.02300	-107
3.02667	-89
3.03033	-74
3.03400	-61
3.03767	-49
3.04133	-40
3.04500	-32
3.04867	-25
3.05233	-20
3.05600	-15
3.05967	-11
3.06333	-8
3.06700	-4
3.07067	-2
3.07433	1
3.07800	3
3.08167	5
3.08533	6
3.08900	8
3.09267	9
3.09633	10
3.10000	11
3.10367	12
3.10733	13
3.11100	14
3.11467	15
3.11833	15
3.12200	16
3.12567	16
3.12933	17
3.13300	18
3.13667	18
3.14033	19
3.14400	19
3.14767	20
3.15133	20
3.15500	20
3.15867	20
3.16233	21
3.16600	21
3.16967	22
3.17333	22
3.17700	22
3.18067	23
3.18433	23
3.18800	23
3.19167	24
3.19533	24
3.19900	24
3.20267	24
3.20633	24
3.21000	24
3.21367	24
3.21733	24
3.22100	24
3.22467	24
3.22833	24
3.23200	24
3.23567	23
3.23933	23
3.24300	23
3.24667	23
3.25033	23
3.25400	23
3.25767	23
3.26133	23
3.26500	24
3.26867	24
3.27233	25
3.27600	25
3.27967	25
3.28333	26
3.28700	26
3.29067	27
3.29433	27
3.29800	28
3.30167	28
3.30533	28
3.30900	28
3.31267	28
3.31633	28
3.32000	28
3.32367	28
3.32733	28
3.33100	28
3.33467	28
3.33833	28
3.34200	28
3.34567	28
3.34933	28
3.35300	28
3.35667	28
3.36033	28
3.36400	28
3.36767	28
3.37133	28
3.37500	28
3.37867	28
3.38233	29
3.38600	29
3.38967	29
3.39333	29
3.39700	30
3.40067	30
3.40433	31
3.40800	31
3.41167	31
3.41533	31
3.41900	31
3.42267	31
3.42633	30
3.43000	30
3.43367	30
3.43733	29
3.44100	29
3.44467	29
3.44833	29
3.45200	29
3.45567	28
3.45933	28
3.46300	28
3.46667	28
3.47033	27
3.47400	27
3.47767	27
3.48133	27
3.48500	27
3.48867	27
3.49233	27
3.49600	27
3.49967	27
3.50333	27
3.50700	27
3.51067	27
3.51433	28
3.51800	28
3.52167	27
3.52533	27
3.52900	27
3.53267	27
3.53633	27
3.54000	27
3.54367	27
3.54733	28
3.55100	28
3.55467	28
3.55833	28
3.56200	28
3.56567	28
3.56933	28
3.57300	28
3.57667	28
3.58033	28
3.58400	28
3.58767	28
3.59133	28
3.59500	28
3.59867	28
3.60233	28
3.60600	28
3.60967	28
3.61333	28
3.61700	28
3.62067	28
3.62433	28
3.62800	28
3.63167	28
3.63533	28
3.63900	28
3.64267	28
3.64633	28
3.65000	28
3.65367	28
3.65733	28
3.66100	28
3.66467	28
3.66833	28
3.67200	29
3.67567	29
3.67933	29
3.68300	29
3.68667	29
3.69033	29
3.69400	29
3.69767	29
3.70133	29
3.70500	30
3.70867	30
3.71233	30
3.71600	30
3.71967	30
3.72333	30
3.72700	30
3.73067	30
3.73433	30
3.73800	31
3.74167	31
3.74533	30
3.74900	30
3.75267	30
3.75633	30
3.76000	31
3.76367	31
3.76733	31
3.77100	31
3.77467	31
3.77833	31
3.78200	31
3.78567	31
3.78933	31
3.79300	31
3.79667	31
3.80033	31
3.80400	30
3.80767	30
3.81133	30
3.81500	30
3.81867	30
3.82233	30
3.82600	30
3.82967	30
3.83333	30
3.83700	30
3.84067	30
3.84433	30
3.84800	30
3.85167	30
3.85533	30
3.85900	30
3.86267	30
3.86633	30
3.87000	30
3.87367	30
3.87733	30
3.88100	30
3.88467	29
3.88833	29
3.89200	29
3.89567	28
3.89933	28
3.90300	28
3.90667	28
3.91033	27
3.91400	27
3.91767	27
3.92133	27
3.92500	27
3.92867	27
3.93233	27
3.93600	27
3.93967	27
3.94333	27
3.94700	27
3.95067	27
3.95433	27
3.95800	28
3.96167	28
3.96533	28
3.96900	28
3.97267	28
3.97633	28
3.98000	29
3.98367	29
3.98733	29
3.99100	29
3.99467	29
3.99833	28

[Chromatogram (Ch3)]
Interval(msec)	220
# of Points	1091
Start Time(min)	0.002
End Time(min)	3.998
R.Time (min)	Intensity
0.00167	1
0.00533	2
0.00900	1
0.01267	-1
0.01633	1
0.02000	1
0.02367	-1
0.02733	-1
0.03100	-0
0.03467	0
0.03833	-1
0.04200	0
0.04567	1
0.04933	1
0.05300	-0
0.05667	-2
0.06033	-2
0.06400	1
0.06767	2
0.07133	1
0.07500	-1
0.07867	-2
0.08233	-0
0.08600	2
0.08967	3
0.09333	4
0.09700	4
0.10067	5
0.10433	3
0.10800	-0
0.11167	-1
0.11533	-2
0.11900	-0
0.12267	0
0.12633	0
0.13000	1
0.13367	1
0.13733	1
0.14100	1
0.14467	0
0.14833	-0
0.15200	0
0.15567	-0
0.15933	-1
0.16300	-4
0.16667	-5
0.17033	-3
0.17400	-0
0.17767	1
0.18133	0
0.18500	-4
0.18867	-5
0.19233	-5
0.19600	-5
0.19967	-1
0.20333	1
0.20700	3
0.21067	3
0.21433	2
0.21800	2
0.22167	0
0.22533	-1
0.22900	1
0.23267	4
0.23633	6
0.24000	5
0.24367	6
0.24733	7
0.25100	6
0.25467	5
0.25833	2
0.26200	-1
0.26567	-2
0.26933	-2
0.27300	-1
0.27667	-0
0.28033	1
0.28400	2
0.28767	3
0.29133	1
0.29500	1
0.29867	2
0.30233	3
0.30600	2
0.30967	2
0.31333	3
0.31700	2
0.32067	2
0.32433	4
0.32800	7
0.33167	9
0.33533	9
0.33900	7
0.34267	6
0.34633	5
0.35000	4
0.35367	4
0.35733	5
0.36100	5
0.36467	4
0.36833	5
0.37200	8
0.37567	9
0.37933	9
0.38300	8
0.38667	9
0.39033	8
0.39400	10
0.39767	11
0.40133	12
0.40500	12
0.40867	10
0.41233	9
0.41600	8
0.41967	6
0.42333	4
0.42700	3
0.43067	4
0.43433	6
0.43800	8
0.44167	9
0.44533	8
0.44900	8
0.45267	8
0.45633	7
0.46000	6
0.46367	5
0.46733	4
0.47100	4
0.47467	5
0.47833	7
0.48200	7
0.48567	6
0.48933	7
0.49300	9
0.49667	10
0.50033	9
0.50400	7
0.50767	6
0.51133	7
0.51500	7
0.51867	7
0.52233	8
0.52600	8
0.52967	8
0.53333	8
0.53700	9
0.54067	8
0.54433	10
0.54800	11
0.55167	10
0.55533	8
0.55900	7
0.56267	7
0.56633	8
0.57000	9
0.57367	10
0.57733	10
0.58100	11
0.58467	11
0.58833	11
0.59200	10
0.59567	10
0.59933	9
0.60300	8
0.60667	6
0.61033	6
0.61400	7
0.61767	9
0.62133	11
0.62500	12
0.62867	12
0.63233	10
0.63600	10
0.63967	10
0.64333	12
0.64700	12
0.65067	13
0.65433	14
0.65800	13
0.66167	11
0.66533	10
0.66900	9
0.67267	9
0.67633	10
0.68000	12
0.68367	12
0.68733	12
0.69100	10
0.69467	9
0.69833	9
0.70200	8
0.70567	8
0.70933	9
0.71300	9
0.71667	8
0.72033	7
0.72400	6
0.72767	7
0.73133	10
0.73500	12
0.73867	12
0.74233	15
0.74600	16
0.74967	16
0.75333	15
0.75700	14
0.76067	14
0.76433	15
0.76800	15
0.77167	13
0.77533	13
0.77900	15
0.78267	15
0.78633	14
0.79000	13
0.79367	12
0.79733	11
0.80100	11
0.80467	12
0.80833	13
0.81200	15
0.81567	15
0.81933	15
0.82300	17
0.82667	17
0.83033	17
0.83400	17
0.83767	17
0.84133	19
0.84500	19
0.84867	18
0.85233	15
0.85600	15
0.85967	15
0.86333	13
0.86700	14
0.87067	15
0.87433	17
0.87800	19
0.88167	18
0.88533	16
0.88900	15
0.89267	16
0.89633	15
0.90000	14
0.90367	13
0.90733	12
0.91100	13
0.91467	15
0.91833	15
0.92200	15
0.92567	16
0.92933	20
0.93300	21
0.93667	19
0.94033	17
0.94400	16
0.94767	17
0.95133	18
0.95500	21
0.95867	21
0.96233	19
0.96600	20
0.96967	22
0.97333	21
0.97700	20
0.98067	21
0.98433	20
0.98800	21
0.99167	22
0.99533	22
0.99900	20
1.00267	18
1.00633	17
1.01000	17
1.01367	16
1.01733	15
1.02100	14
1.02467	15
1.02833	15
1.03200	15
1.03567	18
1.03933	18
1.04300	20
1.04667	22
1.05033	24
1.05400	22
1.05767	22
1.06133	22
1.06500	22
1.06867	21
1.07233	20
1.07600	20
1.07967	20
1.08333	21
1.08700	23
1.09067	22
1.09433	21
1.09800	21
1.10167	21
1.10533	22
1.10900	23
1.11267	22
1.11633	21
1.12000	22
1.12367	25
1.12733	26
1.13100	27
1.13467	26
1.13833	24
1.14200	23
1.14567	22
1.14933	23
1.15300	24
1.15667	25
1.16033	24
1.16400	23
1.16767	23
1.17133	23
1.17500	23
1.17867	23
1.18233	23
1.18600	24
1.18967	24
1.19333	23
1.19700	21
1.20067	19
1.20433	20
1.20800	21
1.21167	22
1.21533	22
1.21900	23
1.22267	25
1.22633	28
1.23000	29
1.23367	28
1.23733	27
1.24100	25
1.24467	22
1.24833	20
1.25200	22
1.25567	23
1.25933	25
1.26300	27
1.26667	27
1.27033	26
1.27400	25
1.27767	24
1.28133	23
1.28500	25
1.28867	24
1.29233	24
1.29600	24
1.29967	24
1.30333	24
1.30700	24
1.31067	25
1.31433	24
1.31800	23
1.32167	22
1.32533	21
1.32900	22
1.33267	22
1.33633	22
1.34000	22
1.34367	22
1.34733	23
1.35100	23
1.35467	23
1.35833	24
1.36200	24
1.36567	24
1.36933	23
1.37300	23
1.37667	23
1.38033	23
1.38400	22
1.38767	22
1.39133	23
1.39500	22
1.39867	22
1.40233	23
1.40600	22
1.40967	24
1.41333	27
1.41700	29
1.42067	28
1.42433	26
1.42800	25
1.43167	24
1.43533	24
1.43900	25
1.44267	24
1.44633	24
1.45000	25
1.45367	24
1.45733	24
1.46100	24
1.46467	23
1.46833	24
1.47200	26
1.47567	27
1.47933	25
1.48300	25
1.48667	26
1.49033	26
1.49400	23
1.49767	21
1.50133	21
1.50500	22
1.50867	24
1.51233	25
1.51600	24
1.51967	24
1.52333	24
1.52700	24
1.53067	24
1.53433	24
1.53800	26
1.54167	27
1.54533	25
1.54900	25
1.55267	24
1.55633	24
1.56000	25
1.56367	26
1.56733	26
1.57100	26
1.57467	25
1.57833	25
1.58200	26
1.58567	26
1.58933	25
1.59300	26
1.59667	27
1.60033	24
1.60400	24
1.60767	24
1.61133	28
1.61500	29
1.61867	30
1.62233	31
1.62600	32
1.62967	34
1.63333	35
1.63700	36
1.64067	37
1.64433	38
1.64800	39
1.65167	39
1.65533	38
1.65900	37
1.66267	37
1.66633	36
1.67000	37
1.67367	39
1.67733	39
1.68100	41
1.68467	42
1.68833	42
1.69200	44
1.69567	43
1.69933	41
1.70300	42
1.70667	42
1.71033	43
1.71400	43
1.71767	43
1.72133	42
1.72500	40
1.72867	40
1.73233	39
1.73600	40
1.73967	40
1.74333	39
1.74700	40
1.75067	42
1.75433	42
1.75800	43
1.76167	44
1.76533	46
1.76900	48
1.77267	51
1.77633	51
1.78000	51
1.78367	50
1.78733	49
1.79100	50
1.79467	50
1.79833	48
1.80200	48
1.80567	49
1.80933	48
1.81300	46
1.81667	45
1.82033	46
1.82400	49
1.82767	52
1.83133	54
1.83500	54
1.83867	58
1.84233	59
1.84600	58
1.84967	56
1.85333	56
1.85700	58
1.86067	59
1.86433	59
1.86800	57
1.87167	58
1.87533	60
1.87900	63
1.88267	65
1.88633	66
1.89000	67
1.89367	67
1.89733	67
1.90100	68
1.90467	70
1.90833	73
1.91200	74
1.91567	75
1.91933	73
1.92300	73
1.92667	72
1.93033	72
1.93400	73
1.93767	76
1.94133	80
1.94500	82
1.94867	83
1.95233	84
1.95600	83
1.95967	83
1.96333	81
1.96700	80
1.97067	80
1.97433	82
1.97800	84
1.98167	83
1.98533	84
1.98900	87
1.99267	89
1.99633	90
2.00000	91
2.00367	93
2.00733	93
2.01100	94
2.01467	96
2.01833	99
2.02200	101
2.02567	103
2.02933	103
2.03300	105
2.03667	106
2.04033	106
2.04400	107
2.04767	106
2.05133	104
2.05500	106
2.05867	109
2.06233	112
2.06600	116
2.06967	118
2.07333	120
2.07700	122
2.08067	121
2.08433	122
2.08800	123
2.09167	123
2.09533	123
2.09900	124
2.10267	124
2.10633	126
2.11000	126
2.11367	124
2.11733	128
2.12100	133
2.12467	133
2.12833	132
2.13200	133
2.13567	135
2.13933	136
2.14300	138
2.14667	142
2.15033	144
2.15400	144
2.15767	142
2.16133	142
2.16500	143
2.16867	144
2.17233	146
2.17600	148
2.17967	151
2.18333	155
2.18700	156
2.19067	157
2.19433	159
2.19800	158
2.20167	156
2.20533	156
2.20900	158
2.21267	162
2.21633	164
2.22000	166
2.22367	167
2.22733	167
2.23100	168
2.23467	170
2.23833	173
2.24200	175
2.24567	175
2.24933	177
2.25300	180
2.25667	183
2.26033	183
2.26400	184
2.26767	184
2.27133	183
2.27500	182
2.27867	181
2.28233	181
2.28600	183
2.28967	188
2.29333	189
2.29700	190
2.30067	191
2.30433	191
2.30800	192
2.31167	193
2.31533	193
2.31900	195
2.32267	195
2.32633	197
2.33000	201
2.33367	204
2.33733	207
2.34100	208
2.34467	208
2.34833	209
2.35200	207
2.35567	206
2.35933	206
2.36300	208
2.36667	209
2.37033	212
2.37400	214
2.37767	215
2.38133	215
2.38500	216
2.38867	215
2.39233	214
2.39600	214
2.39967	216
2.40333	219
2.40700	221
2.41067	223
2.41433	225
2.41800	228
2.42167	228
2.42533	230
2.42900	230
2.43267	230
2.43633	230
2.44000	233
2.44367	280
2.44733	398
2.45100	526
2.45467	634
2.45833	692
2.46200	698
2.46567	676
2.46933	648
2.47300	629
2.47667	616
2.48033	597
2.48400	568
2.48767	530
2.49133	489
2.49500	450
2.49867	422
2.50233	402
2.50600	392
2.50967	391
2.51333	398
2.51700	414
2.52067	431
2.52433	442
2.52800	446
2.53167	438
2.53533	421
2.53900	399
2.54267	376
2.54633	351
2.55000	330
2.55367	313
2.55733	296
2.56100	284
2.56467	275
2.56833	270
2.57200	268
2.57567	267
2.57933	267
2.58300	266
2.58667	268
2.59033	270
2.59400	271
2.59767	273
2.60133	276
2.60500	275
2.60867	270
2.61233	261
2.61600	250
2.61967	239
2.62333	229
2.62700	218
2.63067	207
2.63433	195
2.63800	185
2.64167	174
2.64533	165
2.64900	156
2.65267	147
2.65633	137
2.66000	126
2.66367	121
2.66733	118
2.67100	113
2.67467	109
2.67833	107
2.68200	109
2.68567	111
2.68933	112
2.69300	113
2.69667	115
2.70033	118
2.70400	121
2.70767	122
2.71133	126
2.71500	131
2.71867	138
2.72233	142
2.72600	145
2.72967	147
2.73333	151
2.73700	153
2.74067	157
2.74433	163
2.74800	169
2.75167	173
2.75533	174
2.75900	176
2.76267	177
2.76633	177
2.77000	181
2.77367	186
2.77733	191
2.78100	194
2.78467	194
2.78833	196
2.79200	197
2.79567	201
2.79933	206
2.80300	210
2.80667	213
2.81033	217
2.81400	221
2.81767	226
2.82133	235
2.82500	251
2.82867	280
2.83233	333
2.83600	430
2.83967	593
2.84333	844
2.84700	1192
2.85067	1639
2.85433	2166
2.85800	2743
2.86167	3325
2.86533	3863
2.86900	4315
2.87267	4643
2.87633	4832
2.88000	4884
2.88367	4809
2.88733	4628
2.89100	4371
2.89467	4064
2.89833	3729
2.90200	3387
2.90567	3053
2.90933	2735
2.91300	2440
2.91667	2173
2.92033	1930
2.92400	1711
2.92767	1519
2.93133	1348
2.93500	1198
2.93867	1065
2.94233	950
2.94600	850
2.94967	761
2.95333	686
2.95700	621
2.96067	566
2.96433	519
2.96800	477
2.97167	440
2.97533	409
2.97900	381
2.98267	356
2.98633	338
2.99000	321
2.99367	305
2.99733	292
3.00100	279
3.00467	270
3.00833	264
3.01200	258
3.01567	254
3.01933	249
3.02300	244
3.02667	239
3.03033	234
3.03400	231
3.03767	226
3.04133	223
3.04500	221
3.04867	218
3.05233	217
3.05600	216
3.05967	215
3.06333	216
3.06700	216
3.07067	216
3.07433	216
3.07800	218
3.08167	220
3.08533	219
3.08900	218
3.09267	215
3.09633	213
3.10000	213
3.10367	215
3.10733	217
3.11100	216
3.11467	215
3.11833	216
3.12200	218
3.12567	217
3.12933	215
3.13300	216
3.13667	217
3.14033	220
3.14400	222
3.14767	225
3.15133	226
3.15500	227
3.15867	228
3.16233	229
3.16600	230
3.16967	231
3.17333	233
3.17700	233
3.18067	232
3.18433	230
3.18800	231
3.19167	235
3.19533	238
3.19900	240
3.20267	241
3.20633	242
3.21000	242
3.21367	245
3.21733	248
3.22100	252
3.22467	255
3.22833	259
3.23200	260
3.23567	259
3.23933	260
3.24300	262
3.24667	265
3.25033	265
3.25400	267
3.25767	267
3.26133	266
3.26500	268
3.26867	269
3.27233	272
3.27600	273
3.27967	277
3.28333	280
3.28700	281
3.29067	283
3.29433	285
3.29800	286
3.30167	285
3.30533	286
3.30900	288
3.31267	291
3.31633	291
3.32000	282
3.32367	256
3.32733	233
3.33100	228
3.33467	241
3.33833	266
3.34200	300
3.34567	336
3.34933	379
3.35300	425
3.35667	473
3.36033	518
3.36400	560
3.36767	597
3.37133	631
3.37500	661
3.37867	688
3.38233	712
3.38600	736
3.38967	756
3.39333	774
3.39700	789
3.40067	802
3.40433	815
3.40800	826
3.41167	836
3.41533	844
3.41900	850
3.42267	854
3.42633	858
3.43000	863
3.43367	868
3.43733	871
3.44100	875
3.44467	878
3.44833	881
3.45200	881
3.45567	881
3.45933	882
3.46300	885
3.46667	888
3.47033	888
3.47400	886
3.47767	883
3.48133	881
3.48500	881
3.48867	882
3.49233	880
3.49600	879
3.49967	877
3.50333	875
3.50700	875
3.51067	872
3.51433	870
3.51800	866
3.52167	861
3.52533	862
3.52900	862
3.53267	861
3.53633	858
3.54000	854
3.54367	851
3.54733	850
3.55100	850
3.55467	851
3.55833	850
3.56200	848
3.56567	844
3.56933	842
3.57300	842
3.57667	841
3.58033	840
3.58400	840
3.58767	840
3.59133	840
3.59500	839
3.59867	835
3.60233	835
3.60600	835
3.60967	833
3.61333	834
3.61700	835
3.62067	836
3.62433	837
3.62800	834
3.63167	833
3.63533	834
3.63900	834
3.64267	834
3.64633	835
3.65000	836
3.65367	835
3.65733	834
3.66100	833
3.66467	831
3.66833	830
3.67200	828
3.67567	825
3.67933	826
3.68300	828
3.68667	826
3.69033	823
3.69400	822
3.69767	820
3.70133	817
3.70500	816
3.70867	813
3.71233	814
3.71600	814
3.71967	812
3.72333	812
3.72700	811
3.73067	809
3.73433	808
3.73800	807
3.74167	806
3.74533	803
3.74900	801
3.75267	801
3.75633	800
3.76000	799
3.76367	799
3.76733	797
3.77100	794
3.77467	791
3.77833	788
3.78200	786
3.78567	783
3.78933	780
3.79300	776
3.79667	773
3.80033	772
3.80400	771
3.80767	768
3.81133	765
3.81500	763
3.81867	758
3.82233	753
3.82600	750
3.82967	749
3.83333	748
3.83700	748
3.84067	747
3.84433	744
3.84800	738
3.85167	735
3.85533	731
3.85900	729
3.86267	728
3.86633	727
3.87000	724
3.87367	723
3.87733	723
3.88100	722
3.88467	721
3.88833	718
3.89200	715
3.89567	714
3.89933	712
3.90300	709
3.90667	706
3.91033	705
3.91400	703
3.91767	702
3.92133	701
3.92500	697
3.92867	692
3.93233	691
3.93600	694
3.93967	694
3.94333	693
3.94700	691
3.95067	686
3.95433	683
3.95800	680
3.96167	678
3.96533	675
3.96900	674
3.97267	673
3.97633	674
3.98000	675
3.98367	675
3.98733	672
3.99100	669
3.99467	667
3.99833	661

[Status Trace (Column Oven Temperature)]
Interval(msec)	1000
# of Points	240
Start Time(min)	0.008
End Time(min)	3.991
Intensity Units	
Intensity Multiplier	1
R.Time (min)	Intensity
0.00780	35.00
0.02447	35.00
0.04113	35.00
0.05780	35.00
0.07447	35.01
0.09113	35.00
0.10780	34.99
0.12447	34.99
0.14113	35.00
0.15780	35.00
0.17447	35.00
0.19113	35.02
0.20780	35.01
0.22447	35.01
0.24113	35.02
0.25780	35.02
0.27447	35.01
0.29113	35.01
0.30780	34.99
0.32447	34.99
0.34113	34.99
0.35780	34.99
0.37447	35.01
0.39113	35.01
0.40780	35.03
0.42447	35.03
0.44113	35.02
0.45780	35.03
0.47447	35.02
0.49113	35.03
0.50780	35.03
0.52447	35.04
0.54113	35.03
0.55780	35.04
0.57447	35.04
0.59113	35.03
0.60780	35.04
0.62447	35.04
0.64113	35.03
0.65780	35.03
0.67447	35.02
0.69113	35.01
0.70780	35.00
0.72447	35.00
0.74113	35.00
0.75780	34.99
0.77447	34.98
0.79113	34.98
0.80780	34.98
0.82447	34.98
0.84113	34.97
0.85780	35.00
0.87447	35.01
0.89113	35.01
0.90780	35.01
0.92447	35.01
0.94113	35.01
0.95780	35.01
0.97447	35.00
0.99113	34.99
1.00780	35.00
1.02447	35.00
1.04113	34.99
1.05780	34.98
1.07447	34.97
1.09113	34.97
1.10780	34.98
1.12447	34.98
1.14113	34.99
1.15780	35.00
1.17447	35.01
1.19113	35.00
1.20780	35.01
1.22447	35.01
1.24113	35.00
1.25780	34.99
1.27447	34.99
1.29113	34.98
1.30780	34.99
1.32447	35.00
1.34113	35.00
1.35780	34.99
1.37447	34.99
1.39113	34.99
1.40780	34.99
1.42447	35.01
1.44113	35.01
1.45780	35.01
1.47447	35.00
1.49113	34.99
1.50780	34.98
1.52447	34.99
1.54113	34.98
1.55780	34.99
1.57447	34.99
1.59113	35.01
1.60780	35.06
1.62447	35.18
1.64113	35.37
1.65780	35.61
1.67447	35.94
1.69113	36.30
1.70780	36.66
1.72447	37.01
1.74113	37.34
1.75780	37.66
1.77447	38.00
1.79113	38.34
1.80780	38.69
1.82447	38.99
1.84113	39.30
1.85780	39.64
1.87447	39.96
1.89113	40.30
1.90780	40.61
1.92447	40.94
1.94113	41.28
1.95780	41.59
1.97447	41.93
1.99113	42.27
2.00780	42.58
2.02447	42.91
2.04113	43.24
2.05780	43.57
2.07447	43.89
2.09113	44.23
2.10780	44.55
2.12447	44.89
2.14113	45.19
2.15780	45.52
2.17447	45.84
2.19113	46.18
2.20780	46.50
2.22447	46.83
2.24113	47.17
2.25780	47.51
2.27447	47.82
2.29113	48.14
2.30780	48.50
2.32447	48.82
2.34113	49.14
2.35780	49.42
2.37447	49.61
2.39113	49.69
2.40780	49.68
2.42447	49.69
2.44113	49.71
2.45780	49.71
2.47447	49.71
2.49113	49.72
2.50780	49.74
2.52447	49.74
2.54113	49.77
2.55780	49.78
2.57447	49.82
2.59113	49.82
2.60780	49.82
2.62447	49.82
2.64113	49.84
2.65780	49.84
2.67447	49.85
2.69113	49.85
2.70780	49.84
2.72447	49.86
2.74113	49.88
2.75780	49.88
2.77447	49.88
2.79113	49.87
2.80780	49.87
2.82447	49.86
2.84113	49.85
2.85780	49.86
2.87447	49.87
2.89113	49.89
2.90780	49.91
2.92447	49.93
2.94113	49.93
2.95780	49.96
2.97447	49.98
2.99113	49.98
3.00780	49.99
3.02447	49.99
3.04113	50.00
3.05780	50.02
3.07447	50.04
3.09113	50.06
3.10780	50.07
3.12447	50.07
3.14113	50.08
3.15780	50.07
3.17447	50.07
3.19113	50.07
3.20780	50.08
3.22447	50.09
3.24113	50.11
3.25780	50.11
3.27447	50.10
3.29113	50.09
3.30780	50.09
3.32447	50.09
3.34113	50.09
3.35780	50.09
3.37447	50.09
3.39113	50.07
3.40780	50.06
3.42447	50.06
3.44113	50.06
3.45780	50.07
3.47447	50.07
3.49113	50.08
3.50780	50.08
3.52447	50.09
3.54113	50.09
3.55780	50.09
3.57447	50.09
3.59113	50.08
3.60780	50.09
3.62447	50.09
3.64113	50.10
3.65780	50.10
3.67447	50.10
3.69113	50.10
3.70780	50.09
3.72447	50.08
3.74113	50.08
3.75780	50.06
3.77447	50.06
3.79113	50.05
3.80780	50.04
3.82447	50.04
3.84113	50.05
3.85780	50.04
3.87447	50.04
3.89113	50.05
3.90780	50.05
3.92447	50.05
3.94113	50.06
3.95780	50.07
3.97447	50.06
3.99113	50.06

[Status Trace (Injection Unit Temperature)]
Interval(msec)	1000
# of Points	240
Start Time(min)	0.008
End Time(min)	3.991
Intensity Units	
Intensity Multiplier	1
R.Time (min)	Intensity
0.00780	99.97
0.02447	99.97
0.04113	99.98
0.05780	99.97
0.07447	99.98
0.09113	99.98
0.10780	99.98
0.12447	99.98
0.14113	99.98
0.15780	99.98
0.17447	99.98
0.19113	99.98
0.20780	99.98
0.22447	99.98
0.24113	99.98
0.25780	99.98
0.27447	99.98
0.29113	99.99
0.30780	99.98
0.32447	99.98
0.34113	99.98
0.35780	99.99
0.37447	99.99
0.39113	99.98
0.40780	99.99
0.42447	99.98
0.44113	99.98
0.45780	99.99
0.47447	99.99
0.49113	99.98
0.50780	99.99
0.52447	99.97
0.54113	99.99
0.55780	99.98
0.57447	99.98
0.59113	99.99
0.60780	99.98
0.62447	99.98
0.64113	99.98
0.65780	99.98
0.67447	99.98
0.69113	99.98
0.70780	99.98
0.72447	99.98
0.74113	99.98
0.75780	99.98
0.77447	99.99
0.79113	99.98
0.80780	99.98
0.82447	99.98
0.84113	99.98
0.85780	99.98
0.87447	99.97
0.89113	99.98
0.90780	99.98
0.92447	99.98
0.94113	99.98
0.95780	99.98
0.97447	99.98
0.99113	99.98
1.00780	99.99
1.02447	99.98
1.04113	99.98
1.05780	99.98
1.07447	99.98
1.09113	99.98
1.10780	99.99
1.12447	99.98
1.14113	99.98
1.15780	99.98
1.17447	99.98
1.19113	99.99
1.20780	99.98
1.22447	99.98
1.24113	99.98
1.25780	99.99
1.27447	99.98
1.29113	99.99
1.30780	99.98
1.32447	99.98
1.34113	99.98
1.35780	99.98
1.37447	99.98
1.39113	99.98
1.40780	99.98
1.42447	99.98
1.44113	99.98
1.45780	99.98
1.47447	99.98
1.49113	99.98
1.50780	99.98
1.52447	99.99
1.54113	99.98
1.55780	99.98
1.57447	99.98
1.59113	99.98
1.60780	99.98
1.62447	99.98
1.64113	99.98
1.65780	99.98
1.67447	99.98
1.69113	99.98
1.70780	99.98
1.72447	99.98
1.74113	99.97
1.75780	99.98
1.77447	99.97
1.79113	99.98
1.80780	99.98
1.82447	99.97
1.84113	99.97
1.85780	99.97
1.87447	99.97
1.89113	99.98
1.90780	99.98
1.92447	99.97
1.94113	99.97
1.95780	99.97
1.97447	99.97
1.99113	99.97
2.00780	99.97
2.02447	99.97
2.04113	99.96
2.05780	99.97
2.07447	99.97
2.09113	99.97
2.10780	99.97
2.12447	99.97
2.14113	99.97
2.15780	99.97
2.17447	99.97
2.19113	99.97
2.20780	99.97
2.22447	99.97
2.24113	99.97
2.25780	99.97
2.27447	99.97
2.29113	99.97
2.30780	99.97
2.32447	99.97
2.34113	99.97
2.35780	99.97
2.37447	99.97
2.39113	99.97
2.40780	99.98
2.42447	99.97
2.44113	99.97
2.45780	99.98
2.47447	99.97
2.49113	99.97
2.50780	99.97
2.52447	99.98
2.54113	99.98
2.55780	99.98
2.57447	99.98
2.59113	99.98
2.60780	99.98
2.62447	99.99
2.64113	99.98
2.65780	99.99
2.67447	99.99
2.69113	99.99
2.70780	99.99
2.72447	99.99
2.74113	99.99
2.75780	99.99
2.77447	99.99
2.79113	99.99
2.80780	100.00
2.82447	100.00
2.84113	100.00
2.85780	100.00
2.87447	100.00
2.89113	100.00
2.90780	100.01
2.92447	100.00
2.94113	100.00
2.95780	100.01
2.97447	100.01
2.99113	100.01
3.00780	100.01
3.02447	100.01
3.04113	100.01
3.05780	100.01
3.07447	100.01
3.09113	100.01
3.10780	100.01
3.12447	100.01
3.14113	100.01
3.15780	100.02
3.17447	100.02
3.19113	100.02
3.20780	100.02
3.22447	100.02
3.24113	100.02
3.25780	100.02
3.27447	100.03
3.29113	100.02
3.30780	100.02
3.32447	100.03
3.34113	100.03
3.35780	100.02
3.37447	100.02
3.39113	100.02
3.40780	100.03
3.42447	100.03
3.44113	100.03
3.45780	100.03
3.47447	100.03
3.49113	100.04
3.50780	100.04
3.52447	100.04
3.54113	100.04
3.55780	100.04
3.57447	100.04
3.59113	100.04
3.60780	100.04
3.62447	100.04
3.64113	100.04
3.65780	100.04
3.67447	100.04
3.69113	100.04
3.70780	100.04
3.72447	100.04
3.74113	100.04
3.75780	100.05
3.77447	100.05
3.79113	100.05
3.80780	100.05
3.82447	100.05
3.84113	100.05
3.85780	100.05
3.87447	100.05
3.89113	100.05
3.90780	100.05
3.92447	100.05
3.94113	100.05
3.95780	100.05
3.97447	100.05
3.99113	100.06

[Status Trace (Carrier Gas Pressure)]
Interval(msec)	1000
# of Points	240
Start Time(min)	0.008
End Time(min)	3.991
Intensity Units	
Intensity Multiplier	1
R.Time (min)	Intensity
0.00780	58.00
0.02447	55.36
0.04113	57.07
0.05780	59.27
0.07447	59.36
0.09113	58.07
0.10780	57.98
0.12447	58.01
0.14113	58.01
0.15780	58.00
0.17447	58.00
0.19113	58.00
0.20780	58.00
0.22447	58.00
0.24113	58.00
0.25780	58.00
0.27447	58.00
0.29113	58.00
0.30780	58.00
0.32447	58.00
0.34113	58.00
0.35780	58.00
0.37447	58.00
0.39113	58.00
0.40780	58.00
0.42447	58.00
0.44113	58.00
0.45780	58.00
0.47447	58.00
0.49113	58.00
0.50780	58.00
0.52447	58.00
0.54113	58.00
0.55780	58.00
0.57447	58.00
0.59113	58.00
0.60780	58.00
0.62447	58.00
0.64113	58.00
0.65780	58.00
0.67447	58.00
0.69113	58.00
0.70780	58.00
0.72447	58.00
0.74113	58.00
0.75780	58.00
0.77447	58.00
0.79113	58.00
0.80780	58.00
0.82447	58.00
0.84113	58.00
0.85780	58.00
0.87447	58.00
0.89113	58.00
0.90780	58.00
0.92447	58.00
0.94113	58.00
0.95780	58.00
0.97447	58.00
0.99113	58.00
1.00780	58.00
1.02447	58.00
1.04113	58.00
1.05780	58.00
1.07447	58.00
1.09113	58.00
1.10780	58.00
1.12447	58.00
1.14113	58.00
1.15780	58.00
1.17447	58.00
1.19113	58.00
1.20780	58.00
1.22447	58.00
1.24113	58.00
1.25780	58.00
1.27447	58.00
1.29113	58.00
1.30780	58.00
1.32447	58.00
1.34113	58.00
1.35780	58.00
1.37447	58.00
1.39113	58.00
1.40780	58.00
1.42447	58.00
1.44113	58.00
1.45780	58.00
1.47447	58.00
1.49113	58.00
1.50780	58.00
1.52447	58.00
1.54113	58.00
1.55780	58.00
1.57447	58.00
1.59113	58.00
1.60780	58.00
1.62447	58.00
1.64113	58.00
1.65780	58.00
1.67447	58.01
1.69113	58.00
1.70780	58.00
1.72447	58.00
1.74113	58.00
1.75780	58.00
1.77447	58.00
1.79113	58.00
1.80780	58.00
1.82447	58.00
1.84113	58.00
1.85780	58.00
1.87447	58.00
1.89113	58.00
1.90780	58.00
1.92447	58.00
1.94113	58.00
1.95780	58.00
1.97447	58.00
1.99113	58.00
2.00780	58.00
2.02447	58.00
2.04113	58.00
2.05780	58.00
2.07447	58.00
2.09113	58.00
2.10780	58.00
2.12447	58.00
2.14113	58.00
2.15780	58.00
2.17447	58.00
2.19113	58.00
2.20780	58.00
2.22447	58.00
2.24113	58.00
2.25780	58.00
2.27447	58.00
2.29113	58.00
2.30780	58.00
2.32447	58.00
2.34113	58.00
2.35780	58.00
2.37447	58.00
2.39113	57.99
2.40780	57.99
2.42447	58.00
2.44113	58.00
2.45780	58.00
2.47447	58.00
2.49113	58.00
2.50780	58.00
2.52447	57.98
2.54113	58.00
2.55780	58.00
2.57447	58.00
2.59113	58.00
2.60780	58.00
2.62447	58.00
2.64113	58.00
2.65780	58.00
2.67447	58.00
2.69113	58.00
2.70780	58.00
2.72447	58.00
2.74113	58.00
2.75780	58.00
2.77447	58.00
2.79113	58.00
2.80780	58.00
2.82447	58.00
2.84113	58.00
2.85780	58.00
2.87447	58.00
2.89113	58.00
2.90780	58.00
2.92447	58.00
2.94113	58.00
2.95780	58.00
2.97447	58.00
2.99113	58.00
3.00780	58.00
3.02447	58.00
3.04113	58.00
3.05780	58.00
3.07447	58.00
3.09113	58.00
3.10780	58.00
3.12447	58.00
3.14113	58.00
3.15780	58.00
3.17447	58.00
3.19113	58.00
3.20780	58.00
3.22447	58.00
3.24113	58.00
3.25780	58.00
3.27447	58.00
3.29113	58.00
3.30780	58.00
3.32447	58.00
3.34113	58.00
3.35780	58.00
3.37447	58.00
3.39113	58.00
3.40780	58.00
3.42447	58.00
3.44113	58.00
3.45780	58.00
3.47447	58.00
3.49113	58.00
3.50780	58.00
3.52447	58.00
3.54113	58.00
3.55780	58.00
3.57447	58.00
3.59113	58.00
3.60780	58.00
3.62447	58.00
3.64113	58.00
3.65780	58.00
3.67447	58.00
3.69113	58.00
3.70780	58.00
3.72447	58.00
3.74113	58.00
3.75780	58.00
3.77447	58.00
3.79113	58.00
3.80780	58.00
3.82447	58.00
3.84113	58.00
3.85780	58.00
3.87447	58.00
3.89113	58.00
3.90780	58.00
3.92447	58.00
3.94113	58.00
3.95780	58.00
3.97447	58.00
3.99113	58.00

[Status Trace (Carrier Gas Flow)]
Interval(msec)	1000
# of Points	240
Start Time(min)	0.008
End Time(min)	3.991
Intensity Units	
Intensity Multiplier	1
R.Time (min)	Intensity
0.00780	34.52
0.02447	34.53
0.04113	34.55
0.05780	34.55
0.07447	34.50
0.09113	34.51
0.10780	34.52
0.12447	34.52
0.14113	34.52
0.15780	34.52
0.17447	34.52
0.19113	34.52
0.20780	34.52
0.22447	34.52
0.24113	34.52
0.25780	34.52
0.27447	34.52
0.29113	34.52
0.30780	34.52
0.32447	34.52
0.34113	34.52
0.35780	34.52
0.37447	34.52
0.39113	34.52
0.40780	34.52
0.42447	34.52
0.44113	34.52
0.45780	34.52
0.47447	34.52
0.49113	34.52
0.50780	34.52
0.52447	34.52
0.54113	34.52
0.55780	34.52
0.57447	34.52
0.59113	34.52
0.60780	34.52
0.62447	34.52
0.64113	34.52
0.65780	34.51
0.67447	34.52
0.69113	34.52
0.70780	34.52
0.72447	34.52
0.74113	34.52
0.75780	34.52
0.77447	34.51
0.79113	34.51
0.80780	34.53
0.82447	34.52
0.84113	34.52
0.85780	34.52
0.87447	34.52
0.89113	34.52
0.90780	34.52
0.92447	34.52
0.94113	34.52
0.95780	34.52
0.97447	34.52
0.99113	34.52
1.00780	34.52
1.02447	34.52
1.04113	34.52
1.05780	34.52
1.07447	34.52
1.09113	34.52
1.10780	34.52
1.12447	34.52
1.14113	34.52
1.15780	34.52
1.17447	34.52
1.19113	34.52
1.20780	34.52
1.22447	34.52
1.24113	34.52
1.25780	34.52
1.27447	34.52
1.29113	34.52
1.30780	34.52
1.32447	34.52
1.34113	34.52
1.35780	34.52
1.37447	34.52
1.39113	34.52
1.40780	34.52
1.42447	34.52
1.44113	34.52
1.45780	34.52
1.47447	34.52
1.49113	34.52
1.50780	34.52
1.52447	34.52
1.54113	34.52
1.55780	34.52
1.57447	34.52
1.59113	34.52
1.60780	34.52
1.62447	34.51
1.64113	34.52
1.65780	34.52
1.67447	34.52
1.69113	34.51
1.70780	34.52
1.72447	34.52
1.74113	34.52
1.75780	34.52
1.77447	34.52
1.79113	34.52
1.80780	34.52
1.82447	34.52
1.84113	34.52
1.85780	34.52
1.87447	34.52
1.89113	34.52
1.90780	34.52
1.92447	34.53
1.94113	34.52
1.95780	34.52
1.97447	34.52
1.99113	34.52
2.00780	34.52
2.02447	34.52
2.04113	34.51
2.05780	34.52
2.07447	34.52
2.09113	34.52
2.10780	34.51
2.12447	34.52
2.14113	34.52
2.15780	34.51
2.17447	34.52
2.19113	34.52
2.20780	34.52
2.22447	34.52
2.24113	34.52
2.25780	34.52
2.27447	34.52
2.29113	34.52
2.30780	34.52
2.32447	34.52
2.34113	34.52
2.35780	34.52
2.37447	34.52
2.39113	34.52
2.40780	34.52
2.42447	34.52
2.44113	34.52
2.45780	34.52
2.47447	34.52
2.49113	34.52
2.50780	34.41
2.52447	34.52
2.54113	34.52
2.55780	34.52
2.57447	34.52
2.59113	34.52
2.60780	34.52
2.62447	34.52
2.64113	34.52
2.65780	34.52
2.67447	34.52
2.69113	34.52
2.70780	34.52
2.72447	34.52
2.74113	34.52
2.75780	34.52
2.77447	34.52
2.79113	34.52
2.80780	34.52
2.82447	34.52
2.84113	34.52
2.85780	34.52
2.87447	34.52
2.89113	34.52
2.90780	34.52
2.92447	34.52
2.94113	34.52
2.95780	34.53
2.97447	34.52
2.99113	34.52
3.00780	34.52
3.02447	34.52
3.04113	34.52
3.05780	34.51
3.07447	34.51
3.09113	34.52
3.10780	34.52
3.12447	34.51
3.14113	34.52
3.15780	34.52
3.17447	34.52
3.19113	34.52
3.20780	34.52
3.22447	34.52
3.24113	34.51
3.25780	34.52
3.27447	34.52
3.29113	34.52
3.30780	34.52
3.32447	34.52
3.34113	34.52
3.35780	34.52
3.37447	34.52
3.39113	34.52
3.40780	34.52
3.42447	34.52
3.44113	34.52
3.45780	34.52
3.47447	34.52
3.49113	34.53
3.50780	34.51
3.52447	34.52
3.54113	34.52
3.55780	34.52
3.57447	34.52
3.59113	34.52
3.60780	34.52
3.62447	34.52
3.64113	34.52
3.65780	34.52
3.67447	34.52
3.69113	34.52
3.70780	34.52
3.72447	34.52
3.74113	34.52
3.75780	34.52
3.77447	34.52
3.79113	34.52
3.80780	34.52
3.82447	34.52
3.84113	34.52
3.85780	34.52
3.87447	34.52
3.89113	34.52
3.90780	34.52
3.92447	34.53
3.94113	34.51
3.95780	34.52
3.97447	34.52
3.99113	34.51

[Status Trace (Column Flow)]
Interval(msec)	1000
# of Points	240
Start Time(min)	0.008
End Time(min)	3.991
Intensity Units	
Intensity Multiplier	1
R.Time (min)	Intensity
0.00780	5.53
0.02447	5.22
0.04113	5.42
0.05780	5.68
0.07447	5.69
0.09113	5.53
0.10780	5.53
0.12447	5.53
0.14113	5.53
0.15780	5.53
0.17447	5.53
0.19113	5.53
0.20780	5.53
0.22447	5.53
0.24113	5.53
0.25780	5.53
0.27447	5.53
0.29113	5.53
0.30780	5.53
0.32447	5.53
0.34113	5.53
0.35780	5.53
0.37447	5.53
0.39113	5.53
0.40780	5.53
0.42447	5.53
0.44113	5.53
0.45780	5.53
0.47447	5.53
0.49113	5.53
0.50780	5.53
0.52447	5.53
0.54113	5.53
0.55780	5.53
0.57447	5.53
0.59113	5.53
0.60780	5.53
0.62447	5.53
0.64113	5.53
0.65780	5.53
0.67447	5.53
0.69113	5.53
0.70780	5.53
0.72447	5.53
0.74113	5.53
0.75780	5.53
0.77447	5.53
0.79113	5.53
0.80780	5.53
0.82447	5.53
0.84113	5.53
0.85780	5.53
0.87447	5.53
0.89113	5.53
0.90780	5.53
0.92447	5.53
0.94113	5.53
0.95780	5.53
0.97447	5.53
0.99113	5.53
1.00780	5.53
1.02447	5.53
1.04113	5.53
1.05780	5.53
1.07447	5.53
1.09113	5.53
1.10780	5.53
1.12447	5.53
1.14113	5.53
1.15780	5.53
1.17447	5.53
1.19113	5.53
1.20780	5.53
1.22447	5.53
1.24113	5.53
1.25780	5.53
1.27447	5.53
1.29113	5.53
1.30780	5.53
1.32447	5.53
1.34113	5.53
1.35780	5.53
1.37447	5.53
1.39113	5.53
1.40780	5.53
1.42447	5.53
1.44113	5.53
1.45780	5.53
1.47447	5.53
1.49113	5.53
1.50780	5.53
1.52447	5.53
1.54113	5.53
1.55780	5.53
1.57447	5.53
1.59113	5.53
1.60780	5.53
1.62447	5.52
1.64113	5.52
1.65780	5.51
1.67447	5.50
1.69113	5.49
1.70780	5.47
1.72447	5.46
1.74113	5.45
1.75780	5.44
1.77447	5.43
1.79113	5.42
1.80780	5.41
1.82447	5.40
1.84113	5.39
1.85780	5.38
1.87447	5.37
1.89113	5.36
1.90780	5.35
1.92447	5.34
1.94113	5.33
1.95780	5.32
1.97447	5.31
1.99113	5.30
2.00780	5.30
2.02447	5.29
2.04113	5.28
2.05780	5.27
2.07447	5.26
2.09113	5.25
2.10780	5.24
2.12447	5.23
2.14113	5.22
2.15780	5.21
2.17447	5.20
2.19113	5.19
2.20780	5.18
2.22447	5.17
2.24113	5.16
2.25780	5.15
2.27447	5.14
2.29113	5.13
2.30780	5.12
2.32447	5.12
2.34113	5.11
2.35780	5.10
2.37447	5.09
2.39113	5.09
2.40780	5.09
2.42447	5.09
2.44113	5.09
2.45780	5.09
2.47447	5.09
2.49113	5.09
2.50780	5.09
2.52447	5.09
2.54113	5.09
2.55780	5.09
2.57447	5.09
2.59113	5.09
2.60780	5.09
2.62447	5.09
2.64113	5.09
2.65780	5.09
2.67447	5.09
2.69113	5.09
2.70780	5.09
2.72447	5.09
2.74113	5.09
2.75780	5.09
2.77447	5.09
2.79113	5.09
2.80780	5.09
2.82447	5.09
2.84113	5.09
2.85780	5.09
2.87447	5.09
2.89113	5.09
2.90780	5.09
2.92447	5.09
2.94113	5.09
2.95780	5.08
2.97447	5.08
2.99113	5.08
3.00780	5.08
3.02447	5.08
3.04113	5.08
3.05780	5.08
3.07447	5.08
3.09113	5.08
3.10780	5.08
3.12447	5.08
3.14113	5.08
3.15780	5.08
3.17447	5.08
3.19113	5.08
3.20780	5.08
3.22447	5.08
3.24113	5.08
3.25780	5.08
3.27447	5.08
3.29113	5.08
3.30780	5.08
3.32447	5.08
3.34113	5.08
3.35780	5.08
3.37447	5.08
3.39113	5.08
3.40780	5.08
3.42447	5.08
3.44113	5.08
3.45780	5.08
3.47447	5.08
3.49113	5.08
3.50780	5.08
3.52447	5.08
3.54113	5.08
3.55780	5.08
3.57447	5.08
3.59113	5.08
3.60780	5.08
3.62447	5.08
3.64113	5.08
3.65780	5.08
3.67447	5.08
3.69113	5.08
3.70780	5.08
3.72447	5.08
3.74113	5.08
3.75780	5.08
3.77447	5.08
3.79113	5.08
3.80780	5.08
3.82447	5.08
3.84113	5.08
3.85780	5.08
3.87447	5.08
3.89113	5.08
3.90780	5.08
3.92447	5.08
3.94113	5.08
3.95780	5.08
3.97447	5.08
3.99113	5.08

[Status Trace (Linear Velocity)]
Interval(msec)	1000
# of Points	240
Start Time(min)	0.008
End Time(min)	3.991
Intensity Units	
Intensity Multiplier	1
R.Time (min)	Intensity
0.00780	39.02
0.02447	37.28
0.04113	38.41
0.05780	39.85
0.07447	39.91
0.09113	39.06
0.10780	39.01
0.12447	39.03
0.14113	39.03
0.15780	39.02
0.17447	39.02
0.19113	39.02
0.20780	39.02
0.22447	39.02
0.24113	39.02
0.25780	39.02
0.27447	39.02
0.29113	39.02
0.30780	39.02
0.32447	39.02
0.34113	39.02
0.35780	39.02
0.37447	39.02
0.39113	39.02
0.40780	39.02
0.42447	39.02
0.44113	39.02
0.45780	39.02
0.47447	39.02
0.49113	39.02
0.50780	39.02
0.52447	39.01
0.54113	39.01
0.55780	39.02
0.57447	39.01
0.59113	39.01
0.60780	39.01
0.62447	39.01
0.64113	39.01
0.65780	39.01
0.67447	39.02
0.69113	39.02
0.70780	39.02
0.72447	39.02
0.74113	39.02
0.75780	39.02
0.77447	39.02
0.79113	39.02
0.80780	39.02
0.82447	39.02
0.84113	39.02
0.85780	39.02
0.87447	39.02
0.89113	39.02
0.90780	39.02
0.92447	39.02
0.94113	39.02
0.95780	39.02
0.97447	39.02
0.99113	39.02
1.00780	39.02
1.02447	39.02
1.04113	39.02
1.05780	39.02
1.07447	39.02
1.09113	39.02
1.10780	39.02
1.12447	39.02
1.14113	39.02
1.15780	39.02
1.17447	39.02
1.19113	39.02
1.20780	39.02
1.22447	39.02
1.24113	39.02
1.25780	39.02
1.27447	39.02
1.29113	39.02
1.30780	39.02
1.32447	39.02
1.34113	39.02
1.35780	39.02
1.37447	39.02
1.39113	39.02
1.40780	39.02
1.42447	39.02
1.44113	39.02
1.45780	39.02
1.47447	39.02
1.49113	39.02
1.50780	39.02
1.52447	39.02
1.54113	39.02
1.55780	39.02
1.57447	39.02
1.59113	39.02
1.60780	39.01
1.62447	39.00
1.64113	38.99
1.65780	38.96
1.67447	38.93
1.69113	38.90
1.70780	38.86
1.72447	38.83
1.74113	38.79
1.75780	38.76
1.77447	38.73
1.79113	38.70
1.80780	38.67
1.82447	38.64
1.84113	38.61
1.85780	38.58
1.87447	38.55
1.89113	38.51
1.90780	38.49
1.92447	38.46
1.94113	38.42
1.95780	38.39
1.97447	38.36
1.99113	38.33
2.00780	38.30
2.02447	38.27
2.04113	38.24
2.05780	38.21
2.07447	38.18
2.09113	38.15
2.10780	38.12
2.12447	38.09
2.14113	38.06
2.15780	38.03
2.17447	38.01
2.19113	37.98
2.20780	37.95
2.22447	37.92
2.24113	37.89
2.25780	37.86
2.27447	37.83
2.29113	37.80
2.30780	37.77
2.32447	37.74
2.34113	37.71
2.35780	37.68
2.37447	37.67
2.39113	37.66
2.40780	37.66
2.42447	37.66
2.44113	37.66
2.45780	37.66
2.47447	37.66
2.49113	37.66
2.50780	37.65
2.52447	37.65
2.54113	37.65
2.55780	37.65
2.57447	37.65
2.59113	37.65
2.60780	37.65
2.62447	37.65
2.64113	37.65
2.65780	37.65
2.67447	37.65
2.69113	37.65
2.70780	37.65
2.72447	37.65
2.74113	37.65
2.75780	37.64
2.77447	37.64
2.79113	37.65
2.80780	37.65
2.82447	37.65
2.84113	37.65
2.85780	37.65
2.87447	37.65
2.89113	37.64
2.90780	37.64
2.92447	37.64
2.94113	37.64
2.95780	37.64
2.97447	37.64
2.99113	37.64
3.00780	37.63
3.02447	37.63
3.04113	37.63
3.05780	37.63
3.07447	37.63
3.09113	37.63
3.10780	37.63
3.12447	37.63
3.14113	37.63
3.15780	37.63
3.17447	37.63
3.19113	37.63
3.20780	37.63
3.22447	37.63
3.24113	37.62
3.25780	37.62
3.27447	37.62
3.29113	37.63
3.30780	37.63
3.32447	37.63
3.34113	37.63
3.35780	37.63
3.37447	37.63
3.39113	37.63
3.40780	37.63
3.42447	37.63
3.44113	37.63
3.45780	37.63
3.47447	37.63
3.49113	37.63
3.50780	37.63
3.52447	37.63
3.54113	37.63
3.55780	37.63
3.57447	37.63
3.59113	37.63
3.60780	37.63
3.62447	37.63
3.64113	37.63
3.65780	37.63
3.67447	37.63
3.69113	37.63
3.70780	37.63
3.72447	37.63
3.74113	37.63
3.75780	37.63
3.77447	37.63
3.79113	37.63
3.80780	37.63
3.82447	37.63
3.84113	37.63
3.85780	37.63
3.87447	37.63
3.89113	37.63
3.90780	37.63
3.92447	37.63
3.94113	37.63
3.95780	37.63
3.97447	37.63
3.99113	37.63

