[Header]
Application Name	LabSolutions
Version	5.110
Data File Name	C:\Users\User\Desktop\GC Analyses\Jack\Nachusa Grasslands Sampling\T3 Timepoint July 12th\T3_07122022_068.gcd
Output Date	3/14/2023
Output Time	3:43:34 PM

[File Information]
Type	Data File
Generated	3/13/2023 10:04:41 PM
Generated by	System Administrator
Modified	3/13/2023 10:11:28 PM
Modified by	System Administrator

[Sample Information]
Operator Name	System Administrator
Acquired	3/13/2023 10:07:26 PM
Sample Type	0:Unknown
Level	0
Sample Name	068
Sample ID	068
ISTD Amount1	1
ISTD Amount2	1
ISTD Amount3	1
ISTD Amount4	1
ISTD Amount5	1
ISTD Amount6	1
ISTD Amount7	1
ISTD Amount8	1
ISTD Amount9	1
ISTD Amount10	1
ISTD Amount11	1
ISTD Amount12	1
ISTD Amount13	1
ISTD Amount14	1
ISTD Amount15	1
ISTD Amount16	1
ISTD Amount17	1
ISTD Amount18	1
ISTD Amount19	1
ISTD Amount20	1
ISTD Amount21	1
ISTD Amount22	1
ISTD Amount23	1
ISTD Amount24	1
ISTD Amount25	1
ISTD Amount26	1
ISTD Amount27	1
ISTD Amount28	1
ISTD Amount29	1
ISTD Amount30	1
ISTD Amount31	1
ISTD Amount32	1
Sample Amount	1
Dilution Factor	1
Vial#	67
Injection Volume	1
Injection Count	1
Bar Code	

[Original Files]
Data File	C:\Users\User\Desktop\GC Analyses\Jack\Nachusa Grasslands Sampling\T3 Timepoint July 12th\T3_07122022_068.gcd
Method File	C:\LabSolutions\Data\GHG_4min_2022\ghg3_togas_w_acet_4 min_new_int.gcm
Batch File	C:\LabSolutions\Data\AutoSamplerTesting\T3_07122022.gcb
Report Format File	c:\LabSolutions\System\DEFAULT.lsr

[File Description]


[Configuration]
Instrument Name	C0B7VH3-Instrument1
Instrument #	1
Line #	1
# of Detectors	3
Detector ID	DET#1	DET#2	DET#3
Detector Name	FID	PTCD	ECD
# of Channels	1	1	1

[Peak Table(Ch1)]
# of Peaks	3
Peak#	R.Time	I.Time	F.Time	Area	Height	A/H	Conc.	Mark	ID#	Name	k'	Plate #	Plate Ht.	Tailing	Resolution	Sep.Factor	Area Ratio	Height Ratio	Conc. %	Norm Conc.
1	1.476	1.439	1.534	25562	12644	2.022	180.466	   	1	CO	0.000	9684	15.490	1.258	0.000	0.000	0	0	13.442	13.442
2	1.571	1.538	1.622	3838	1997	1.922	74.202	   	2	CH4	0.065	11964	12.537	1.113	1.624	0.000	0	0	5.527	5.527
3	1.996	1.949	2.451	4334575	2085605	2.078	1087.861	   	3	CO2	0.353	17202	8.720	1.304	7.189	5.462	0	0	81.031	81.031

[Peak Table(Ch2)]
# of Peaks	0

[Peak Table(Ch3)]
# of Peaks	6
Peak#	R.Time	I.Time	F.Time	Area	Height	A/H	Conc.	Mark	ID#	Name	k'	Plate #	Plate Ht.	Tailing	Resolution	Sep.Factor	Area Ratio	Height Ratio	Conc. %	Norm Conc.
1	2.462	2.337	2.510	2148	673	3.191	0.000	   			0.000	10516	14.264	0.000	0.000	0.000	0	0	0.000	0.000
2	2.532	2.510	2.576	991	350	2.830	0.000	 V 			0.028	7100	21.127	0.000	0.644	0.000	0	0	0.000	0.000
3	2.601	2.576	2.675	524	158	3.328	0.000	 V 			0.057	1028	145.884	0.000	0.313	2.000	0	0	0.000	0.000
4	2.880	2.799	3.129	18351	4720	3.888	0.469	S  	1	N2O	0.170	13223	11.344	1.571	1.312	3.000	0	0	100.000	100.000
5	3.118	3.052	3.129	154	64	2.423	0.000	T  	2	SF6	0.267	26936	5.569	0.582	2.706	1.570	0	0	0.000	0.000
6	3.324	3.137	3.995	19401	654	29.671	0.000	   	2	SF6	0.350	237	631.742	2.239	0.437	1.313	0	0	0.000	0.000

[Compound Results(Ch1)]
# of IDs	6
ID#	Name	R.Time	Area	Height	Conc.	Curve	3rd	2nd	1st	Constant	Area Ratio	Height Ratio	Conc. %	Norm Conc.
1	CO	1.476	25562	12644	180.466	Linear	0.000000e+00	0.000000e+00	1.416423e+002	0.000000e+00	0	0	13.442	13.442
2	CH4	1.571	3838	1997	74.202	Linear	0.000000e+00	0.000000e+00	5.171738e+001	0.000000e+00	0	0	5.527	5.527
3	CO2	1.996	4334575	2085605	1087.861	Linear	0.000000e+00	0.000000e+00	3.984494e+003	0.000000e+00	0	0	81.031	81.031
4	Ethylene	0.000	0	0	0.000	Linear	0.000000e+00	0.000000e+00	0.000000e+00	0.000000e+00	0	0	0.000	0.000
5	Acetylene	0.000	0	0	0.000	Linear	0.000000e+00	0.000000e+00	0.000000e+00	0.000000e+00	0	0	0.000	0.000
6	Ethane	0.000	0	0	0.000	Linear	0.000000e+00	0.000000e+00	0.000000e+00	0.000000e+00	0	0	0.000	0.000

[Compound Results(Ch2)]
# of IDs	5
ID#	Name	R.Time	Area	Height	Conc.	Curve	3rd	2nd	1st	Constant	Area Ratio	Height Ratio	Conc. %	Norm Conc.
1	Hydrogen	0.000	0	0	0.000	Linear	0.000000e+00	0.000000e+00	0.000000e+00	0.000000e+00	0	0	0.000	0.000
2	Oxygen	0.000	0	0	0.000	Linear	0.000000e+00	0.000000e+00	0.000000e+00	0.000000e+00	0	0	0.000	0.000
3	Nitrogen	0.000	0	0	0.000	Linear	0.000000e+00	0.000000e+00	0.000000e+00	0.000000e+00	0	0	0.000	0.000
4	Methane	0.000	0	0	0.000	Linear	0.000000e+00	0.000000e+00	0.000000e+00	0.000000e+00	0	0	0.000	0.000
5	Carbon Monoxide	0.000	0	0	0.000	Linear	0.000000e+00	0.000000e+00	0.000000e+00	0.000000e+00	0	0	0.000	0.000

[Compound Results(Ch3)]
# of IDs	2
ID#	Name	R.Time	Area	Height	Conc.	Curve	3rd	2nd	1st	Constant	Area Ratio	Height Ratio	Conc. %	Norm Conc.
1	N2O	2.880	18351	4720	0.469	Linear	0.000000e+00	0.000000e+00	3.915173e+004	0.000000e+00	0	0	100.000	100.000
2	SF6	3.324	19556	718	0.000	Linear	0.000000e+00	0.000000e+00	0.000000e+00	0.000000e+00	0	0	0.000	0.000

[Group Results(Ch1)]
# of Groups	0

[Group Results(Ch2)]
# of Groups	0

[Group Results(Ch3)]
# of Groups	0

[Chromatogram (Ch1)]
Interval(msec)	220
# of Points	1091
Start Time(min)	0.002
End Time(min)	3.998
R.Time (min)	Intensity
0.00167	3
0.00533	7
0.00900	14
0.01267	20
0.01633	26
0.02000	28
0.02367	30
0.02733	35
0.03100	39
0.03467	35
0.03833	25
0.04200	16
0.04567	11
0.04933	11
0.05300	14
0.05667	16
0.06033	16
0.06400	14
0.06767	13
0.07133	10
0.07500	5
0.07867	4
0.08233	7
0.08600	12
0.08967	14
0.09333	11
0.09700	8
0.10067	10
0.10433	18
0.10800	24
0.11167	28
0.11533	30
0.11900	30
0.12267	27
0.12633	22
0.13000	16
0.13367	13
0.13733	16
0.14100	22
0.14467	26
0.14833	25
0.15200	23
0.15567	25
0.15933	30
0.16300	34
0.16667	32
0.17033	30
0.17400	31
0.17767	29
0.18133	31
0.18500	34
0.18867	37
0.19233	42
0.19600	50
0.19967	55
0.20333	56
0.20700	57
0.21067	58
0.21433	59
0.21800	59
0.22167	59
0.22533	58
0.22900	54
0.23267	50
0.23633	50
0.24000	52
0.24367	50
0.24733	47
0.25100	44
0.25467	42
0.25833	37
0.26200	29
0.26567	19
0.26933	12
0.27300	17
0.27667	26
0.28033	31
0.28400	30
0.28767	28
0.29133	28
0.29500	30
0.29867	28
0.30233	23
0.30600	19
0.30967	19
0.31333	18
0.31700	15
0.32067	12
0.32433	15
0.32800	20
0.33167	21
0.33533	20
0.33900	18
0.34267	13
0.34633	11
0.35000	9
0.35367	8
0.35733	7
0.36100	8
0.36467	9
0.36833	15
0.37200	21
0.37567	20
0.37933	15
0.38300	9
0.38667	3
0.39033	2
0.39400	5
0.39767	12
0.40133	16
0.40500	18
0.40867	18
0.41233	17
0.41600	20
0.41967	23
0.42333	24
0.42700	20
0.43067	15
0.43433	10
0.43800	6
0.44167	7
0.44533	10
0.44900	9
0.45267	5
0.45633	1
0.46000	-1
0.46367	-4
0.46733	-6
0.47100	-5
0.47467	-1
0.47833	4
0.48200	7
0.48567	12
0.48933	18
0.49300	22
0.49667	28
0.50033	32
0.50400	31
0.50767	22
0.51133	8
0.51500	-7
0.51867	-18
0.52233	-24
0.52600	-26
0.52967	-26
0.53333	-22
0.53700	-15
0.54067	-6
0.54433	1
0.54800	6
0.55167	9
0.55533	8
0.55900	10
0.56267	12
0.56633	11
0.57000	8
0.57367	5
0.57733	2
0.58100	1
0.58467	1
0.58833	3
0.59200	5
0.59567	2
0.59933	-3
0.60300	-7
0.60667	-9
0.61033	-11
0.61400	-9
0.61767	-5
0.62133	-1
0.62500	1
0.62867	4
0.63233	8
0.63600	15
0.63967	20
0.64333	23
0.64700	26
0.65067	25
0.65433	20
0.65800	11
0.66167	5
0.66533	1
0.66900	-0
0.67267	-2
0.67633	-4
0.68000	-5
0.68367	-2
0.68733	0
0.69100	2
0.69467	4
0.69833	8
0.70200	11
0.70567	11
0.70933	8
0.71300	7
0.71667	5
0.72033	3
0.72400	3
0.72767	4
0.73133	1
0.73500	-4
0.73867	-6
0.74233	-11
0.74600	-16
0.74967	-17
0.75333	-16
0.75700	-17
0.76067	-21
0.76433	-23
0.76800	-20
0.77167	-17
0.77533	-12
0.77900	-4
0.78267	7
0.78633	12
0.79000	11
0.79367	5
0.79733	-6
0.80100	-17
0.80467	-25
0.80833	-28
0.81200	-27
0.81567	-26
0.81933	-23
0.82300	-20
0.82667	-20
0.83033	-19
0.83400	-20
0.83767	-19
0.84133	-15
0.84500	-9
0.84867	-5
0.85233	5
0.85600	18
0.85967	25
0.86333	21
0.86700	10
0.87067	-1
0.87433	-9
0.87800	-14
0.88167	-13
0.88533	-9
0.88900	-6
0.89267	-4
0.89633	-3
0.90000	-0
0.90367	3
0.90733	6
0.91100	10
0.91467	11
0.91833	4
0.92200	-5
0.92567	-7
0.92933	-7
0.93300	-10
0.93667	-12
0.94033	-12
0.94400	-14
0.94767	-10
0.95133	-3
0.95500	2
0.95867	3
0.96233	6
0.96600	10
0.96967	8
0.97333	2
0.97700	-6
0.98067	-16
0.98433	-25
0.98800	-30
0.99167	-35
0.99533	-36
0.99900	-31
1.00267	-26
1.00633	-24
1.01000	-23
1.01367	-25
1.01733	-24
1.02100	-22
1.02467	-26
1.02833	-32
1.03200	-38
1.03567	-35
1.03933	-26
1.04300	-20
1.04667	-15
1.05033	-11
1.05400	-11
1.05767	-13
1.06133	-12
1.06500	-7
1.06867	-2
1.07233	-5
1.07600	-14
1.07967	-24
1.08333	-37
1.08700	-46
1.09067	-46
1.09433	-44
1.09800	-47
1.10167	-51
1.10533	-55
1.10900	-59
1.11267	-62
1.11633	-62
1.12000	-64
1.12367	-62
1.12733	-58
1.13100	-57
1.13467	-57
1.13833	-59
1.14200	-60
1.14567	-60
1.14933	-57
1.15300	-55
1.15667	-54
1.16033	-48
1.16400	-27
1.16767	1
1.17133	16
1.17500	16
1.17867	11
1.18233	5
1.18600	4
1.18967	1
1.19333	-3
1.19700	-4
1.20067	-3
1.20433	3
1.20800	10
1.21167	14
1.21533	10
1.21900	1
1.22267	-10
1.22633	-17
1.23000	-19
1.23367	-19
1.23733	-20
1.24100	-21
1.24467	-19
1.24833	-14
1.25200	-8
1.25567	-4
1.25933	-3
1.26300	-2
1.26667	-1
1.27033	-3
1.27400	-9
1.27767	-21
1.28133	-34
1.28500	-41
1.28867	-46
1.29233	-49
1.29600	-45
1.29967	-40
1.30333	-33
1.30700	-27
1.31067	-23
1.31433	-15
1.31800	-3
1.32167	3
1.32533	5
1.32900	4
1.33267	-2
1.33633	-8
1.34000	-11
1.34367	-12
1.34733	-14
1.35100	-15
1.35467	-16
1.35833	-15
1.36200	-14
1.36567	-14
1.36933	-11
1.37300	-12
1.37667	-18
1.38033	-24
1.38400	-28
1.38767	-30
1.39133	-27
1.39500	-27
1.39867	-30
1.40233	-30
1.40600	-28
1.40967	-33
1.41333	-34
1.41700	-27
1.42067	-23
1.42433	-25
1.42800	-30
1.43167	-37
1.43533	-41
1.43900	-33
1.44267	11
1.44633	167
1.45000	610
1.45367	1669
1.45733	3578
1.46100	6034
1.46467	8466
1.46833	10477
1.47200	11884
1.47567	12570
1.47933	12423
1.48300	11422
1.48667	9755
1.49033	7770
1.49400	5825
1.49767	4157
1.50133	2849
1.50500	1886
1.50867	1202
1.51233	731
1.51600	414
1.51967	204
1.52333	65
1.52700	-30
1.53067	-96
1.53433	-139
1.53800	-155
1.54167	-121
1.54533	13
1.54900	287
1.55267	667
1.55633	1066
1.56000	1417
1.56367	1683
1.56733	1840
1.57100	1864
1.57467	1733
1.57833	1472
1.58200	1145
1.58567	819
1.58933	537
1.59300	320
1.59667	166
1.60033	62
1.60400	-3
1.60767	-45
1.61133	-74
1.61500	-89
1.61867	-94
1.62233	-98
1.62600	-100
1.62967	-95
1.63333	-91
1.63700	-93
1.64067	-101
1.64433	-109
1.64800	-114
1.65167	-115
1.65533	-117
1.65900	-124
1.66267	-131
1.66633	-133
1.67000	-133
1.67367	-131
1.67733	-128
1.68100	-126
1.68467	-125
1.68833	-126
1.69200	-126
1.69567	-124
1.69933	-119
1.70300	-116
1.70667	-114
1.71033	-105
1.71400	-94
1.71767	-90
1.72133	-90
1.72500	-91
1.72867	-96
1.73233	-103
1.73600	-108
1.73967	-114
1.74333	-116
1.74700	-115
1.75067	-112
1.75433	-112
1.75800	-115
1.76167	-120
1.76533	-124
1.76900	-122
1.77267	-116
1.77633	-110
1.78000	-106
1.78367	-102
1.78733	-98
1.79100	-96
1.79467	-92
1.79833	-87
1.80200	-85
1.80567	-81
1.80933	-76
1.81300	-75
1.81667	-77
1.82033	-80
1.82400	-85
1.82767	-93
1.83133	-102
1.83500	-110
1.83867	-109
1.84233	-102
1.84600	-94
1.84967	-85
1.85333	-76
1.85700	-63
1.86067	-54
1.86433	-56
1.86800	-66
1.87167	-80
1.87533	-93
1.87900	-103
1.88267	-109
1.88633	-109
1.89000	-107
1.89367	-104
1.89733	-99
1.90100	-94
1.90467	-94
1.90833	-98
1.91200	-103
1.91567	-105
1.91933	-101
1.92300	-96
1.92667	-91
1.93033	-85
1.93400	-80
1.93767	-73
1.94133	-68
1.94500	-64
1.94867	-59
1.95233	-30
1.95600	179
1.95967	1554
1.96333	8601
1.96700	35900
1.97067	116408
1.97433	295412
1.97800	596818
1.98167	990291
1.98533	1401847
1.98900	1753353
1.99267	1990247
1.99633	2085583
2.00000	2035763
2.00367	1860946
2.00733	1599609
2.01100	1299042
2.01467	1003174
2.01833	742883
2.02200	532666
2.02567	373440
2.02933	258348
2.03300	177842
2.03667	122730
2.04033	85475
2.04400	60431
2.04767	43590
2.05133	32194
2.05500	24397
2.05867	18980
2.06233	15147
2.06600	12375
2.06967	10328
2.07333	8778
2.07700	7580
2.08067	6634
2.08433	5873
2.08800	5252
2.09167	4736
2.09533	4305
2.09900	3943
2.10267	3636
2.10633	3366
2.11000	3124
2.11367	2908
2.11733	2720
2.12100	2552
2.12467	2399
2.12833	2257
2.13200	2128
2.13567	2016
2.13933	1916
2.14300	1822
2.14667	1734
2.15033	1655
2.15400	1589
2.15767	1533
2.16133	1477
2.16500	1422
2.16867	1368
2.17233	1315
2.17600	1265
2.17967	1223
2.18333	1186
2.18700	1148
2.19067	1111
2.19433	1075
2.19800	1040
2.20167	1010
2.20533	985
2.20900	960
2.21267	936
2.21633	915
2.22000	893
2.22367	868
2.22733	844
2.23100	821
2.23467	796
2.23833	768
2.24200	742
2.24567	719
2.24933	701
2.25300	687
2.25667	669
2.26033	650
2.26400	634
2.26767	620
2.27133	608
2.27500	601
2.27867	594
2.28233	579
2.28600	562
2.28967	549
2.29333	541
2.29700	537
2.30067	529
2.30433	520
2.30800	512
2.31167	505
2.31533	501
2.31900	500
2.32267	500
2.32633	498
2.33000	489
2.33367	476
2.33733	464
2.34100	456
2.34467	453
2.34833	454
2.35200	459
2.35567	464
2.35933	463
2.36300	453
2.36667	437
2.37033	422
2.37400	411
2.37767	408
2.38133	410
2.38500	413
2.38867	409
2.39233	402
2.39600	398
2.39967	396
2.40333	392
2.40700	384
2.41067	377
2.41433	375
2.41800	381
2.42167	389
2.42533	400
2.42900	404
2.43267	398
2.43633	383
2.44000	365
2.44367	349
2.44733	339
2.45100	331
2.45467	323
2.45833	317
2.46200	317
2.46567	323
2.46933	334
2.47300	341
2.47667	345
2.48033	353
2.48400	358
2.48767	358
2.49133	357
2.49500	352
2.49867	345
2.50233	334
2.50600	325
2.50967	316
2.51333	310
2.51700	304
2.52067	306
2.52433	312
2.52800	319
2.53167	324
2.53533	331
2.53900	339
2.54267	346
2.54633	352
2.55000	352
2.55367	344
2.55733	335
2.56100	324
2.56467	314
2.56833	306
2.57200	300
2.57567	300
2.57933	302
2.58300	305
2.58667	305
2.59033	307
2.59400	311
2.59767	310
2.60133	306
2.60500	299
2.60867	297
2.61233	299
2.61600	302
2.61967	306
2.62333	309
2.62700	314
2.63067	318
2.63433	319
2.63800	319
2.64167	318
2.64533	317
2.64900	316
2.65267	314
2.65633	315
2.66000	316
2.66367	314
2.66733	314
2.67100	313
2.67467	313
2.67833	318
2.68200	327
2.68567	334
2.68933	339
2.69300	341
2.69667	339
2.70033	332
2.70400	321
2.70767	314
2.71133	312
2.71500	314
2.71867	319
2.72233	322
2.72600	321
2.72967	320
2.73333	321
2.73700	322
2.74067	325
2.74433	327
2.74800	327
2.75167	328
2.75533	329
2.75900	329
2.76267	328
2.76633	329
2.77000	328
2.77367	328
2.77733	328
2.78100	325
2.78467	319
2.78833	313
2.79200	310
2.79567	311
2.79933	315
2.80300	319
2.80667	321
2.81033	321
2.81400	326
2.81767	332
2.82133	335
2.82500	336
2.82867	337
2.83233	339
2.83600	342
2.83967	344
2.84333	345
2.84700	344
2.85067	343
2.85433	343
2.85800	348
2.86167	351
2.86533	354
2.86900	358
2.87267	359
2.87633	355
2.88000	352
2.88367	349
2.88733	349
2.89100	351
2.89467	352
2.89833	349
2.90200	344
2.90567	340
2.90933	344
2.91300	349
2.91667	351
2.92033	345
2.92400	336
2.92767	326
2.93133	318
2.93500	316
2.93867	320
2.94233	327
2.94600	334
2.94967	340
2.95333	341
2.95700	341
2.96067	345
2.96433	350
2.96800	353
2.97167	352
2.97533	344
2.97900	338
2.98267	338
2.98633	345
2.99000	355
2.99367	361
2.99733	369
3.00100	376
3.00467	374
3.00833	369
3.01200	362
3.01567	360
3.01933	360
3.02300	357
3.02667	354
3.03033	352
3.03400	348
3.03767	349
3.04133	352
3.04500	355
3.04867	358
3.05233	356
3.05600	350
3.05967	348
3.06333	347
3.06700	345
3.07067	341
3.07433	338
3.07800	340
3.08167	344
3.08533	346
3.08900	342
3.09267	335
3.09633	331
3.10000	332
3.10367	337
3.10733	344
3.11100	350
3.11467	351
3.11833	349
3.12200	350
3.12567	352
3.12933	355
3.13300	357
3.13667	361
3.14033	365
3.14400	367
3.14767	364
3.15133	359
3.15500	351
3.15867	347
3.16233	344
3.16600	342
3.16967	338
3.17333	335
3.17700	334
3.18067	338
3.18433	346
3.18800	356
3.19167	360
3.19533	354
3.19900	346
3.20267	336
3.20633	322
3.21000	314
3.21367	309
3.21733	309
3.22100	311
3.22467	321
3.22833	331
3.23200	338
3.23567	338
3.23933	339
3.24300	339
3.24667	340
3.25033	340
3.25400	343
3.25767	348
3.26133	352
3.26500	355
3.26867	356
3.27233	349
3.27600	345
3.27967	341
3.28333	338
3.28700	337
3.29067	339
3.29433	344
3.29800	350
3.30167	349
3.30533	341
3.30900	332
3.31267	330
3.31633	335
3.32000	346
3.32367	350
3.32733	347
3.33100	340
3.33467	330
3.33833	323
3.34200	323
3.34567	323
3.34933	320
3.35300	319
3.35667	319
3.36033	320
3.36400	322
3.36767	322
3.37133	321
3.37500	323
3.37867	325
3.38233	325
3.38600	327
3.38967	331
3.39333	333
3.39700	332
3.40067	324
3.40433	310
3.40800	297
3.41167	285
3.41533	279
3.41900	281
3.42267	285
3.42633	285
3.43000	286
3.43367	288
3.43733	288
3.44100	289
3.44467	292
3.44833	293
3.45200	294
3.45567	299
3.45933	303
3.46300	308
3.46667	313
3.47033	319
3.47400	324
3.47767	327
3.48133	327
3.48500	327
3.48867	321
3.49233	309
3.49600	297
3.49967	291
3.50333	289
3.50700	291
3.51067	296
3.51433	299
3.51800	299
3.52167	299
3.52533	298
3.52900	298
3.53267	301
3.53633	304
3.54000	302
3.54367	297
3.54733	291
3.55100	283
3.55467	278
3.55833	278
3.56200	284
3.56567	288
3.56933	291
3.57300	293
3.57667	290
3.58033	283
3.58400	279
3.58767	279
3.59133	277
3.59500	272
3.59867	270
3.60233	271
3.60600	277
3.60967	285
3.61333	297
3.61700	308
3.62067	312
3.62433	304
3.62800	296
3.63167	290
3.63533	281
3.63900	269
3.64267	260
3.64633	249
3.65000	239
3.65367	236
3.65733	239
3.66100	246
3.66467	253
3.66833	257
3.67200	258
3.67567	259
3.67933	261
3.68300	266
3.68667	271
3.69033	274
3.69400	273
3.69767	271
3.70133	271
3.70500	273
3.70867	274
3.71233	271
3.71600	270
3.71967	271
3.72333	273
3.72700	276
3.73067	280
3.73433	288
3.73800	301
3.74167	310
3.74533	301
3.74900	282
3.75267	259
3.75633	240
3.76000	226
3.76367	222
3.76733	225
3.77100	230
3.77467	236
3.77833	237
3.78200	238
3.78567	243
3.78933	251
3.79300	255
3.79667	255
3.80033	251
3.80400	245
3.80767	238
3.81133	234
3.81500	236
3.81867	245
3.82233	252
3.82600	255
3.82967	257
3.83333	255
3.83700	253
3.84067	251
3.84433	246
3.84800	240
3.85167	233
3.85533	231
3.85900	234
3.86267	241
3.86633	254
3.87000	267
3.87367	274
3.87733	273
3.88100	263
3.88467	249
3.88833	237
3.89200	231
3.89567	227
3.89933	229
3.90300	240
3.90667	248
3.91033	248
3.91400	245
3.91767	236
3.92133	225
3.92500	217
3.92867	211
3.93233	207
3.93600	208
3.93967	211
3.94333	216
3.94700	219
3.95067	223
3.95433	228
3.95800	227
3.96167	223
3.96533	222
3.96900	224
3.97267	224
3.97633	224
3.98000	223
3.98367	219
3.98733	214
3.99100	211
3.99467	210
3.99833	211

[Chromatogram (Ch2)]
Interval(msec)	220
# of Points	1091
Start Time(min)	0.002
End Time(min)	3.998
R.Time (min)	Intensity
0.00167	-0
0.00533	0
0.00900	0
0.01267	0
0.01633	0
0.02000	0
0.02367	0
0.02733	0
0.03100	0
0.03467	0
0.03833	0
0.04200	0
0.04567	0
0.04933	0
0.05300	0
0.05667	0
0.06033	-0
0.06400	-0
0.06767	-1
0.07133	-1
0.07500	-1
0.07867	-1
0.08233	-1
0.08600	-1
0.08967	-1
0.09333	-1
0.09700	-1
0.10067	-1
0.10433	-1
0.10800	-1
0.11167	-0
0.11533	-0
0.11900	0
0.12267	1
0.12633	1
0.13000	1
0.13367	1
0.13733	1
0.14100	1
0.14467	0
0.14833	0
0.15200	0
0.15567	0
0.15933	0
0.16300	-0
0.16667	-1
0.17033	-1
0.17400	-1
0.17767	-2
0.18133	-2
0.18500	-2
0.18867	-2
0.19233	-2
0.19600	-2
0.19967	-2
0.20333	-2
0.20700	-2
0.21067	-2
0.21433	-2
0.21800	-2
0.22167	-2
0.22533	-2
0.22900	-2
0.23267	-3
0.23633	-3
0.24000	-3
0.24367	-3
0.24733	-3
0.25100	-3
0.25467	-3
0.25833	-3
0.26200	-3
0.26567	-3
0.26933	-2
0.27300	-2
0.27667	-2
0.28033	-2
0.28400	-2
0.28767	-1
0.29133	-1
0.29500	-0
0.29867	-0
0.30233	0
0.30600	0
0.30967	1
0.31333	1
0.31700	2
0.32067	2
0.32433	2
0.32800	2
0.33167	2
0.33533	1
0.33900	1
0.34267	1
0.34633	1
0.35000	1
0.35367	0
0.35733	0
0.36100	0
0.36467	-0
0.36833	-0
0.37200	0
0.37567	0
0.37933	0
0.38300	0
0.38667	0
0.39033	1
0.39400	1
0.39767	1
0.40133	1
0.40500	1
0.40867	0
0.41233	1
0.41600	1
0.41967	1
0.42333	1
0.42700	0
0.43067	0
0.43433	0
0.43800	0
0.44167	0
0.44533	0
0.44900	-0
0.45267	-0
0.45633	-1
0.46000	-1
0.46367	-1
0.46733	-2
0.47100	-2
0.47467	-3
0.47833	-3
0.48200	-3
0.48567	-3
0.48933	-4
0.49300	-4
0.49667	-4
0.50033	-4
0.50400	-4
0.50767	-4
0.51133	-4
0.51500	-4
0.51867	-3
0.52233	-3
0.52600	-3
0.52967	-2
0.53333	-2
0.53700	-2
0.54067	-2
0.54433	-2
0.54800	-2
0.55167	-2
0.55533	-1
0.55900	-1
0.56267	-1
0.56633	-1
0.57000	-1
0.57367	-1
0.57733	-0
0.58100	0
0.58467	0
0.58833	1
0.59200	1
0.59567	0
0.59933	0
0.60300	-0
0.60667	-0
0.61033	-1
0.61400	-1
0.61767	-1
0.62133	-1
0.62500	-1
0.62867	-1
0.63233	-1
0.63600	-1
0.63967	-0
0.64333	-0
0.64700	-1
0.65067	-1
0.65433	-1
0.65800	-1
0.66167	-1
0.66533	-1
0.66900	-1
0.67267	-1
0.67633	-1
0.68000	-1
0.68367	-1
0.68733	-1
0.69100	-2
0.69467	-2
0.69833	-2
0.70200	-2
0.70567	-2
0.70933	-2
0.71300	-3
0.71667	-3
0.72033	-3
0.72400	-4
0.72767	-4
0.73133	-4
0.73500	-5
0.73867	-5
0.74233	-5
0.74600	-4
0.74967	-4
0.75333	-4
0.75700	-4
0.76067	-4
0.76433	-3
0.76800	-3
0.77167	-3
0.77533	-2
0.77900	-2
0.78267	-2
0.78633	-1
0.79000	-1
0.79367	-1
0.79733	-1
0.80100	-1
0.80467	-1
0.80833	-1
0.81200	-0
0.81567	-0
0.81933	-0
0.82300	-0
0.82667	-0
0.83033	-0
0.83400	-0
0.83767	-1
0.84133	-1
0.84500	-1
0.84867	-1
0.85233	-1
0.85600	-1
0.85967	-1
0.86333	-1
0.86700	-1
0.87067	-2
0.87433	-2
0.87800	-2
0.88167	-3
0.88533	-3
0.88900	-3
0.89267	-3
0.89633	-3
0.90000	-3
0.90367	-3
0.90733	-3
0.91100	-3
0.91467	-3
0.91833	-3
0.92200	-3
0.92567	-4
0.92933	-4
0.93300	-4
0.93667	-4
0.94033	-4
0.94400	-4
0.94767	-5
0.95133	-5
0.95500	-4
0.95867	-4
0.96233	-4
0.96600	-3
0.96967	-3
0.97333	-3
0.97700	-2
0.98067	-2
0.98433	-2
0.98800	-2
0.99167	-2
0.99533	-3
0.99900	-3
1.00267	-3
1.00633	-4
1.01000	-4
1.01367	-4
1.01733	-4
1.02100	-4
1.02467	-4
1.02833	-4
1.03200	-4
1.03567	-3
1.03933	-3
1.04300	-3
1.04667	-3
1.05033	-3
1.05400	-3
1.05767	-3
1.06133	-3
1.06500	-3
1.06867	-3
1.07233	-3
1.07600	-3
1.07967	-2
1.08333	-2
1.08700	-2
1.09067	-2
1.09433	-1
1.09800	-1
1.10167	-1
1.10533	-2
1.10900	-2
1.11267	-2
1.11633	-2
1.12000	-2
1.12367	-2
1.12733	-2
1.13100	-2
1.13467	-2
1.13833	-2
1.14200	-2
1.14567	-2
1.14933	-2
1.15300	-3
1.15667	-3
1.16033	-3
1.16400	-4
1.16767	-4
1.17133	-4
1.17500	-4
1.17867	-3
1.18233	-3
1.18600	-3
1.18967	-3
1.19333	-2
1.19700	-2
1.20067	-2
1.20433	-2
1.20800	-2
1.21167	-2
1.21533	-2
1.21900	-2
1.22267	-2
1.22633	-2
1.23000	-2
1.23367	-2
1.23733	-2
1.24100	-2
1.24467	-2
1.24833	-2
1.25200	-2
1.25567	-2
1.25933	-2
1.26300	-2
1.26667	-2
1.27033	-2
1.27400	-2
1.27767	-2
1.28133	-2
1.28500	-3
1.28867	-3
1.29233	-3
1.29600	-3
1.29967	-3
1.30333	-3
1.30700	-3
1.31067	-4
1.31433	-4
1.31800	-4
1.32167	-4
1.32533	-4
1.32900	-3
1.33267	-3
1.33633	-3
1.34000	-3
1.34367	-3
1.34733	-3
1.35100	-3
1.35467	-4
1.35833	-4
1.36200	-3
1.36567	-3
1.36933	-3
1.37300	-3
1.37667	-3
1.38033	-3
1.38400	-3
1.38767	-3
1.39133	-3
1.39500	-3
1.39867	-3
1.40233	-4
1.40600	-4
1.40967	-4
1.41333	-4
1.41700	-4
1.42067	-4
1.42433	-4
1.42800	-3
1.43167	-3
1.43533	-3
1.43900	-2
1.44267	-2
1.44633	-2
1.45000	-2
1.45367	-2
1.45733	-2
1.46100	-2
1.46467	-2
1.46833	-1
1.47200	-1
1.47567	-1
1.47933	-2
1.48300	-2
1.48667	-2
1.49033	-2
1.49400	-2
1.49767	-2
1.50133	-2
1.50500	-2
1.50867	-2
1.51233	-2
1.51600	-2
1.51967	-2
1.52333	-3
1.52700	-3
1.53067	-3
1.53433	-3
1.53800	-3
1.54167	-3
1.54533	-2
1.54900	-2
1.55267	-2
1.55633	-2
1.56000	-2
1.56367	-2
1.56733	-2
1.57100	-2
1.57467	-3
1.57833	-3
1.58200	-3
1.58567	-4
1.58933	-4
1.59300	-4
1.59667	-5
1.60033	-5
1.60400	-6
1.60767	-7
1.61133	-8
1.61500	-10
1.61867	-13
1.62233	-15
1.62600	-18
1.62967	-21
1.63333	-24
1.63700	-27
1.64067	-31
1.64433	-35
1.64800	-38
1.65167	-42
1.65533	-46
1.65900	-50
1.66267	-54
1.66633	-57
1.67000	-61
1.67367	-66
1.67733	-70
1.68100	-75
1.68467	-80
1.68833	-85
1.69200	-89
1.69567	-93
1.69933	-96
1.70300	-99
1.70667	-101
1.71033	-103
1.71400	-105
1.71767	-106
1.72133	-107
1.72500	-108
1.72867	-109
1.73233	-110
1.73600	-110
1.73967	-110
1.74333	-110
1.74700	-110
1.75067	-109
1.75433	-109
1.75800	-108
1.76167	-108
1.76533	-107
1.76900	-107
1.77267	-107
1.77633	-107
1.78000	-108
1.78367	-109
1.78733	-110
1.79100	-111
1.79467	-112
1.79833	-113
1.80200	-113
1.80567	-114
1.80933	-114
1.81300	-114
1.81667	-114
1.82033	-114
1.82400	-115
1.82767	-115
1.83133	-115
1.83500	-116
1.83867	-116
1.84233	-116
1.84600	-116
1.84967	-116
1.85333	-116
1.85700	-117
1.86067	-116
1.86433	-116
1.86800	-116
1.87167	-116
1.87533	-115
1.87900	-115
1.88267	-115
1.88633	-115
1.89000	-115
1.89367	-115
1.89733	-115
1.90100	-114
1.90467	-114
1.90833	-114
1.91200	-114
1.91567	-114
1.91933	-113
1.92300	-113
1.92667	-113
1.93033	-113
1.93400	-113
1.93767	-112
1.94133	-112
1.94500	-112
1.94867	-111
1.95233	-111
1.95600	-110
1.95967	-110
1.96333	-110
1.96700	-109
1.97067	-109
1.97433	-109
1.97800	-109
1.98167	-109
1.98533	-108
1.98900	-108
1.99267	-107
1.99633	-107
2.00000	-107
2.00367	-107
2.00733	-107
2.01100	-107
2.01467	-107
2.01833	-107
2.02200	-107
2.02567	-107
2.02933	-107
2.03300	-106
2.03667	-106
2.04033	-106
2.04400	-106
2.04767	-105
2.05133	-105
2.05500	-104
2.05867	-104
2.06233	-103
2.06600	-102
2.06967	-102
2.07333	-101
2.07700	-101
2.08067	-100
2.08433	-100
2.08800	-100
2.09167	-99
2.09533	-99
2.09900	-98
2.10267	-98
2.10633	-98
2.11000	-98
2.11367	-98
2.11733	-98
2.12100	-98
2.12467	-98
2.12833	-97
2.13200	-97
2.13567	-97
2.13933	-97
2.14300	-97
2.14667	-96
2.15033	-95
2.15400	-95
2.15767	-94
2.16133	-93
2.16500	-93
2.16867	-93
2.17233	-93
2.17600	-92
2.17967	-92
2.18333	-92
2.18700	-92
2.19067	-92
2.19433	-93
2.19800	-93
2.20167	-92
2.20533	-92
2.20900	-92
2.21267	-91
2.21633	-90
2.22000	-90
2.22367	-89
2.22733	-89
2.23100	-88
2.23467	-88
2.23833	-88
2.24200	-87
2.24567	-87
2.24933	-87
2.25300	-87
2.25667	-86
2.26033	-86
2.26400	-85
2.26767	-85
2.27133	-85
2.27500	-84
2.27867	-84
2.28233	-83
2.28600	-83
2.28967	-82
2.29333	-82
2.29700	-82
2.30067	-82
2.30433	-82
2.30800	-82
2.31167	-82
2.31533	-82
2.31900	-81
2.32267	-81
2.32633	-81
2.33000	-80
2.33367	-80
2.33733	-79
2.34100	-78
2.34467	-77
2.34833	-76
2.35200	-74
2.35567	-72
2.35933	-70
2.36300	-68
2.36667	-66
2.37033	-64
2.37400	-61
2.37767	-58
2.38133	-54
2.38500	-50
2.38867	-47
2.39233	-42
2.39600	-38
2.39967	-34
2.40333	-31
2.40700	-27
2.41067	-24
2.41433	-21
2.41800	-19
2.42167	-17
2.42533	-15
2.42900	-13
2.43267	-11
2.43633	-10
2.44000	-9
2.44367	-8
2.44733	-8
2.45100	-8
2.45467	-8
2.45833	-7
2.46200	-6
2.46567	-6
2.46933	-4
2.47300	-3
2.47667	-2
2.48033	-1
2.48400	0
2.48767	1
2.49133	2
2.49500	2
2.49867	3
2.50233	3
2.50600	4
2.50967	5
2.51333	6
2.51700	7
2.52067	8
2.52433	9
2.52800	9
2.53167	10
2.53533	10
2.53900	11
2.54267	12
2.54633	13
2.55000	14
2.55367	15
2.55733	15
2.56100	15
2.56467	15
2.56833	15
2.57200	15
2.57567	15
2.57933	15
2.58300	15
2.58667	15
2.59033	15
2.59400	15
2.59767	16
2.60133	16
2.60500	16
2.60867	16
2.61233	16
2.61600	16
2.61967	16
2.62333	17
2.62700	17
2.63067	16
2.63433	16
2.63800	16
2.64167	15
2.64533	15
2.64900	15
2.65267	16
2.65633	16
2.66000	17
2.66367	17
2.66733	17
2.67100	17
2.67467	17
2.67833	18
2.68200	18
2.68567	18
2.68933	19
2.69300	19
2.69667	20
2.70033	20
2.70400	20
2.70767	21
2.71133	21
2.71500	22
2.71867	22
2.72233	22
2.72600	22
2.72967	22
2.73333	23
2.73700	23
2.74067	23
2.74433	23
2.74800	23
2.75167	23
2.75533	23
2.75900	23
2.76267	24
2.76633	24
2.77000	24
2.77367	24
2.77733	24
2.78100	24
2.78467	24
2.78833	25
2.79200	25
2.79567	25
2.79933	25
2.80300	25
2.80667	26
2.81033	26
2.81400	26
2.81767	26
2.82133	26
2.82500	26
2.82867	26
2.83233	25
2.83600	25
2.83967	24
2.84333	23
2.84700	21
2.85067	18
2.85433	12
2.85800	3
2.86167	-9
2.86533	-25
2.86900	-45
2.87267	-69
2.87633	-98
2.88000	-131
2.88367	-168
2.88733	-209
2.89100	-254
2.89467	-302
2.89833	-352
2.90200	-404
2.90567	-457
2.90933	-512
2.91300	-567
2.91667	-621
2.92033	-676
2.92400	-729
2.92767	-781
2.93133	-831
2.93500	-883
2.93867	-939
2.94233	-996
2.94600	-1048
2.94967	-1081
2.95333	-1091
2.95700	-1075
2.96067	-1036
2.96433	-979
2.96800	-909
2.97167	-832
2.97533	-753
2.97900	-674
2.98267	-598
2.98633	-526
2.99000	-460
2.99367	-400
2.99733	-347
3.00100	-299
3.00467	-257
3.00833	-219
3.01200	-187
3.01567	-158
3.01933	-134
3.02300	-113
3.02667	-95
3.03033	-79
3.03400	-66
3.03767	-54
3.04133	-45
3.04500	-37
3.04867	-30
3.05233	-24
3.05600	-18
3.05967	-14
3.06333	-10
3.06700	-7
3.07067	-4
3.07433	-2
3.07800	-0
3.08167	2
3.08533	3
3.08900	5
3.09267	6
3.09633	7
3.10000	8
3.10367	9
3.10733	10
3.11100	11
3.11467	11
3.11833	12
3.12200	12
3.12567	13
3.12933	13
3.13300	13
3.13667	14
3.14033	14
3.14400	15
3.14767	15
3.15133	15
3.15500	15
3.15867	16
3.16233	16
3.16600	16
3.16967	16
3.17333	16
3.17700	17
3.18067	17
3.18433	17
3.18800	17
3.19167	18
3.19533	18
3.19900	18
3.20267	19
3.20633	19
3.21000	19
3.21367	19
3.21733	19
3.22100	20
3.22467	20
3.22833	20
3.23200	20
3.23567	21
3.23933	21
3.24300	21
3.24667	21
3.25033	21
3.25400	21
3.25767	22
3.26133	22
3.26500	23
3.26867	23
3.27233	23
3.27600	23
3.27967	23
3.28333	24
3.28700	24
3.29067	24
3.29433	24
3.29800	25
3.30167	25
3.30533	25
3.30900	25
3.31267	25
3.31633	25
3.32000	25
3.32367	25
3.32733	25
3.33100	25
3.33467	24
3.33833	24
3.34200	24
3.34567	24
3.34933	24
3.35300	24
3.35667	24
3.36033	25
3.36400	25
3.36767	25
3.37133	25
3.37500	25
3.37867	26
3.38233	26
3.38600	26
3.38967	27
3.39333	27
3.39700	27
3.40067	27
3.40433	27
3.40800	27
3.41167	27
3.41533	27
3.41900	27
3.42267	27
3.42633	28
3.43000	28
3.43367	28
3.43733	28
3.44100	28
3.44467	28
3.44833	28
3.45200	28
3.45567	28
3.45933	28
3.46300	28
3.46667	28
3.47033	28
3.47400	28
3.47767	28
3.48133	28
3.48500	28
3.48867	28
3.49233	28
3.49600	28
3.49967	28
3.50333	28
3.50700	28
3.51067	28
3.51433	28
3.51800	28
3.52167	28
3.52533	28
3.52900	28
3.53267	28
3.53633	28
3.54000	28
3.54367	28
3.54733	28
3.55100	27
3.55467	27
3.55833	27
3.56200	27
3.56567	27
3.56933	26
3.57300	26
3.57667	26
3.58033	26
3.58400	26
3.58767	25
3.59133	25
3.59500	25
3.59867	25
3.60233	25
3.60600	25
3.60967	25
3.61333	25
3.61700	25
3.62067	25
3.62433	25
3.62800	25
3.63167	25
3.63533	25
3.63900	25
3.64267	25
3.64633	26
3.65000	26
3.65367	26
3.65733	26
3.66100	26
3.66467	26
3.66833	26
3.67200	26
3.67567	26
3.67933	26
3.68300	26
3.68667	26
3.69033	25
3.69400	25
3.69767	25
3.70133	25
3.70500	25
3.70867	25
3.71233	25
3.71600	25
3.71967	25
3.72333	26
3.72700	26
3.73067	26
3.73433	25
3.73800	25
3.74167	25
3.74533	25
3.74900	24
3.75267	24
3.75633	24
3.76000	24
3.76367	24
3.76733	24
3.77100	24
3.77467	24
3.77833	24
3.78200	24
3.78567	24
3.78933	24
3.79300	24
3.79667	24
3.80033	25
3.80400	25
3.80767	25
3.81133	25
3.81500	25
3.81867	26
3.82233	26
3.82600	26
3.82967	26
3.83333	25
3.83700	25
3.84067	25
3.84433	25
3.84800	25
3.85167	25
3.85533	25
3.85900	25
3.86267	25
3.86633	25
3.87000	25
3.87367	25
3.87733	25
3.88100	25
3.88467	25
3.88833	25
3.89200	25
3.89567	25
3.89933	25
3.90300	26
3.90667	26
3.91033	26
3.91400	26
3.91767	26
3.92133	26
3.92500	26
3.92867	25
3.93233	25
3.93600	25
3.93967	25
3.94333	25
3.94700	26
3.95067	26
3.95433	26
3.95800	26
3.96167	26
3.96533	25
3.96900	25
3.97267	25
3.97633	25
3.98000	24
3.98367	24
3.98733	24
3.99100	24
3.99467	24
3.99833	24

[Chromatogram (Ch3)]
Interval(msec)	220
# of Points	1091
Start Time(min)	0.002
End Time(min)	3.998
R.Time (min)	Intensity
0.00167	0
0.00533	1
0.00900	2
0.01267	1
0.01633	-1
0.02000	-1
0.02367	1
0.02733	2
0.03100	3
0.03467	3
0.03833	0
0.04200	-1
0.04567	-2
0.04933	0
0.05300	1
0.05667	3
0.06033	3
0.06400	2
0.06767	-0
0.07133	-1
0.07500	-0
0.07867	-0
0.08233	-0
0.08600	-2
0.08967	-2
0.09333	-1
0.09700	2
0.10067	2
0.10433	1
0.10800	2
0.11167	3
0.11533	5
0.11900	6
0.12267	6
0.12633	6
0.13000	5
0.13367	3
0.13733	1
0.14100	0
0.14467	1
0.14833	1
0.15200	1
0.15567	1
0.15933	3
0.16300	2
0.16667	2
0.17033	1
0.17400	1
0.17767	2
0.18133	3
0.18500	6
0.18867	7
0.19233	6
0.19600	6
0.19967	6
0.20333	6
0.20700	4
0.21067	-1
0.21433	-5
0.21800	-8
0.22167	-9
0.22533	-10
0.22900	-8
0.23267	-6
0.23633	-3
0.24000	-3
0.24367	-2
0.24733	-1
0.25100	-2
0.25467	-2
0.25833	-2
0.26200	-2
0.26567	1
0.26933	3
0.27300	4
0.27667	4
0.28033	2
0.28400	2
0.28767	1
0.29133	0
0.29500	0
0.29867	1
0.30233	-0
0.30600	1
0.30967	1
0.31333	1
0.31700	1
0.32067	1
0.32433	0
0.32800	0
0.33167	1
0.33533	1
0.33900	0
0.34267	-1
0.34633	-1
0.35000	-0
0.35367	0
0.35733	1
0.36100	3
0.36467	4
0.36833	3
0.37200	2
0.37567	2
0.37933	3
0.38300	1
0.38667	0
0.39033	-1
0.39400	-1
0.39767	0
0.40133	0
0.40500	1
0.40867	1
0.41233	3
0.41600	6
0.41967	9
0.42333	7
0.42700	4
0.43067	2
0.43433	-1
0.43800	-2
0.44167	-0
0.44533	3
0.44900	4
0.45267	3
0.45633	2
0.46000	2
0.46367	2
0.46733	2
0.47100	2
0.47467	4
0.47833	5
0.48200	2
0.48567	-1
0.48933	-2
0.49300	-2
0.49667	-0
0.50033	-0
0.50400	-0
0.50767	-1
0.51133	-1
0.51500	1
0.51867	3
0.52233	3
0.52600	2
0.52967	3
0.53333	4
0.53700	5
0.54067	7
0.54433	8
0.54800	7
0.55167	5
0.55533	1
0.55900	1
0.56267	3
0.56633	4
0.57000	4
0.57367	1
0.57733	-1
0.58100	-1
0.58467	-2
0.58833	-1
0.59200	-1
0.59567	-1
0.59933	1
0.60300	2
0.60667	4
0.61033	7
0.61400	9
0.61767	7
0.62133	4
0.62500	2
0.62867	2
0.63233	3
0.63600	4
0.63967	6
0.64333	5
0.64700	4
0.65067	4
0.65433	5
0.65800	7
0.66167	8
0.66533	8
0.66900	8
0.67267	6
0.67633	6
0.68000	6
0.68367	5
0.68733	4
0.69100	4
0.69467	3
0.69833	0
0.70200	1
0.70567	2
0.70933	1
0.71300	1
0.71667	4
0.72033	7
0.72400	8
0.72767	8
0.73133	8
0.73500	8
0.73867	6
0.74233	3
0.74600	4
0.74967	5
0.75333	5
0.75700	2
0.76067	2
0.76433	4
0.76800	6
0.77167	7
0.77533	6
0.77900	7
0.78267	8
0.78633	8
0.79000	9
0.79367	6
0.79733	7
0.80100	7
0.80467	7
0.80833	6
0.81200	6
0.81567	6
0.81933	5
0.82300	4
0.82667	5
0.83033	6
0.83400	8
0.83767	9
0.84133	9
0.84500	9
0.84867	9
0.85233	7
0.85600	7
0.85967	9
0.86333	10
0.86700	11
0.87067	9
0.87433	7
0.87800	6
0.88167	5
0.88533	6
0.88900	7
0.89267	8
0.89633	9
0.90000	10
0.90367	11
0.90733	9
0.91100	10
0.91467	11
0.91833	11
0.92200	10
0.92567	9
0.92933	8
0.93300	8
0.93667	7
0.94033	7
0.94400	8
0.94767	9
0.95133	11
0.95500	12
0.95867	14
0.96233	14
0.96600	13
0.96967	10
0.97333	8
0.97700	8
0.98067	9
0.98433	10
0.98800	12
0.99167	13
0.99533	14
0.99900	14
1.00267	13
1.00633	12
1.01000	11
1.01367	10
1.01733	10
1.02100	12
1.02467	13
1.02833	15
1.03200	18
1.03567	21
1.03933	22
1.04300	22
1.04667	21
1.05033	20
1.05400	20
1.05767	19
1.06133	19
1.06500	20
1.06867	20
1.07233	21
1.07600	22
1.07967	23
1.08333	24
1.08700	23
1.09067	19
1.09433	16
1.09800	14
1.10167	12
1.10533	11
1.10900	11
1.11267	13
1.11633	16
1.12000	19
1.12367	21
1.12733	21
1.13100	20
1.13467	17
1.13833	17
1.14200	19
1.14567	21
1.14933	20
1.15300	20
1.15667	20
1.16033	20
1.16400	19
1.16767	18
1.17133	19
1.17500	20
1.17867	19
1.18233	17
1.18600	17
1.18967	17
1.19333	16
1.19700	17
1.20067	17
1.20433	17
1.20800	18
1.21167	17
1.21533	15
1.21900	13
1.22267	14
1.22633	15
1.23000	15
1.23367	17
1.23733	18
1.24100	16
1.24467	16
1.24833	15
1.25200	16
1.25567	16
1.25933	17
1.26300	18
1.26667	17
1.27033	17
1.27400	18
1.27767	18
1.28133	18
1.28500	19
1.28867	19
1.29233	19
1.29600	18
1.29967	18
1.30333	18
1.30700	19
1.31067	21
1.31433	24
1.31800	27
1.32167	28
1.32533	28
1.32900	27
1.33267	27
1.33633	26
1.34000	25
1.34367	23
1.34733	23
1.35100	24
1.35467	23
1.35833	20
1.36200	21
1.36567	22
1.36933	23
1.37300	24
1.37667	24
1.38033	23
1.38400	23
1.38767	22
1.39133	21
1.39500	23
1.39867	26
1.40233	25
1.40600	22
1.40967	20
1.41333	18
1.41700	18
1.42067	19
1.42433	21
1.42800	24
1.43167	24
1.43533	23
1.43900	23
1.44267	22
1.44633	22
1.45000	21
1.45367	22
1.45733	22
1.46100	23
1.46467	22
1.46833	22
1.47200	22
1.47567	24
1.47933	25
1.48300	27
1.48667	28
1.49033	28
1.49400	28
1.49767	28
1.50133	27
1.50500	26
1.50867	26
1.51233	27
1.51600	27
1.51967	26
1.52333	26
1.52700	26
1.53067	25
1.53433	24
1.53800	25
1.54167	25
1.54533	24
1.54900	24
1.55267	24
1.55633	24
1.56000	26
1.56367	26
1.56733	25
1.57100	25
1.57467	26
1.57833	27
1.58200	28
1.58567	28
1.58933	28
1.59300	29
1.59667	28
1.60033	28
1.60400	29
1.60767	30
1.61133	29
1.61500	29
1.61867	30
1.62233	31
1.62600	33
1.62967	34
1.63333	33
1.63700	31
1.64067	31
1.64433	31
1.64800	30
1.65167	30
1.65533	33
1.65900	36
1.66267	37
1.66633	37
1.67000	36
1.67367	35
1.67733	38
1.68100	40
1.68467	43
1.68833	45
1.69200	47
1.69567	48
1.69933	47
1.70300	46
1.70667	45
1.71033	45
1.71400	46
1.71767	47
1.72133	47
1.72500	47
1.72867	45
1.73233	45
1.73600	45
1.73967	48
1.74333	51
1.74700	52
1.75067	50
1.75433	48
1.75800	48
1.76167	49
1.76533	50
1.76900	51
1.77267	50
1.77633	50
1.78000	53
1.78367	55
1.78733	55
1.79100	56
1.79467	57
1.79833	58
1.80200	58
1.80567	58
1.80933	59
1.81300	61
1.81667	62
1.82033	63
1.82400	63
1.82767	65
1.83133	66
1.83500	69
1.83867	72
1.84233	75
1.84600	75
1.84967	72
1.85333	71
1.85700	73
1.86067	74
1.86433	75
1.86800	77
1.87167	77
1.87533	78
1.87900	79
1.88267	80
1.88633	80
1.89000	80
1.89367	81
1.89733	80
1.90100	82
1.90467	83
1.90833	83
1.91200	83
1.91567	86
1.91933	89
1.92300	91
1.92667	91
1.93033	90
1.93400	90
1.93767	91
1.94133	92
1.94500	95
1.94867	95
1.95233	94
1.95600	92
1.95967	91
1.96333	92
1.96700	93
1.97067	95
1.97433	97
1.97800	99
1.98167	99
1.98533	99
1.98900	102
1.99267	104
1.99633	104
2.00000	103
2.00367	103
2.00733	104
2.01100	107
2.01467	109
2.01833	110
2.02200	111
2.02567	111
2.02933	112
2.03300	114
2.03667	114
2.04033	114
2.04400	114
2.04767	114
2.05133	116
2.05500	117
2.05867	118
2.06233	121
2.06600	124
2.06967	126
2.07333	127
2.07700	128
2.08067	129
2.08433	129
2.08800	128
2.09167	129
2.09533	132
2.09900	135
2.10267	137
2.10633	139
2.11000	141
2.11367	144
2.11733	145
2.12100	145
2.12467	146
2.12833	147
2.13200	150
2.13567	153
2.13933	155
2.14300	156
2.14667	157
2.15033	159
2.15400	159
2.15767	161
2.16133	163
2.16500	166
2.16867	166
2.17233	163
2.17600	163
2.17967	165
2.18333	168
2.18700	170
2.19067	171
2.19433	173
2.19800	175
2.20167	177
2.20533	178
2.20900	177
2.21267	178
2.21633	179
2.22000	180
2.22367	182
2.22733	183
2.23100	183
2.23467	184
2.23833	186
2.24200	187
2.24567	187
2.24933	187
2.25300	187
2.25667	190
2.26033	191
2.26400	191
2.26767	193
2.27133	194
2.27500	196
2.27867	199
2.28233	203
2.28600	205
2.28967	206
2.29333	207
2.29700	207
2.30067	209
2.30433	211
2.30800	213
2.31167	214
2.31533	219
2.31900	222
2.32267	222
2.32633	223
2.33000	225
2.33367	227
2.33733	228
2.34100	230
2.34467	231
2.34833	232
2.35200	234
2.35567	234
2.35933	235
2.36300	237
2.36667	239
2.37033	240
2.37400	241
2.37767	241
2.38133	239
2.38500	238
2.38867	238
2.39233	238
2.39600	242
2.39967	245
2.40333	248
2.40700	254
2.41067	256
2.41433	256
2.41800	257
2.42167	256
2.42533	256
2.42900	258
2.43267	262
2.43633	264
2.44000	266
2.44367	321
2.44733	466
2.45100	623
2.45467	749
2.45833	817
2.46200	816
2.46567	775
2.46933	723
2.47300	681
2.47667	654
2.48033	629
2.48400	596
2.48767	553
2.49133	503
2.49500	458
2.49867	420
2.50233	390
2.50600	372
2.50967	368
2.51333	375
2.51700	392
2.52067	414
2.52433	435
2.52800	448
2.53167	446
2.53533	428
2.53900	402
2.54267	371
2.54633	339
2.55000	309
2.55367	282
2.55733	259
2.56100	242
2.56467	229
2.56833	220
2.57200	213
2.57567	211
2.57933	211
2.58300	211
2.58667	209
2.59033	207
2.59400	207
2.59767	208
2.60133	206
2.60500	201
2.60867	190
2.61233	174
2.61600	155
2.61967	138
2.62333	122
2.62700	111
2.63067	101
2.63433	92
2.63800	83
2.64167	73
2.64533	64
2.64900	54
2.65267	45
2.65633	36
2.66000	25
2.66367	16
2.66733	8
2.67100	4
2.67467	-1
2.67833	-5
2.68200	-9
2.68567	-10
2.68933	-10
2.69300	-9
2.69667	-9
2.70033	-6
2.70400	-2
2.70767	4
2.71133	9
2.71500	14
2.71867	21
2.72233	26
2.72600	32
2.72967	35
2.73333	40
2.73700	45
2.74067	50
2.74433	53
2.74800	56
2.75167	59
2.75533	61
2.75900	64
2.76267	67
2.76633	71
2.77000	75
2.77367	79
2.77733	84
2.78100	88
2.78467	91
2.78833	97
2.79200	101
2.79567	102
2.79933	106
2.80300	111
2.80667	118
2.81033	123
2.81400	129
2.81767	136
2.82133	145
2.82500	163
2.82867	197
2.83233	264
2.83600	379
2.83967	566
2.84333	844
2.84700	1225
2.85067	1701
2.85433	2248
2.85800	2828
2.86167	3403
2.86533	3923
2.86900	4346
2.87267	4638
2.87633	4790
2.88000	4805
2.88367	4700
2.88733	4498
2.89100	4224
2.89467	3906
2.89833	3568
2.90200	3227
2.90567	2897
2.90933	2585
2.91300	2296
2.91667	2033
2.92033	1795
2.92400	1585
2.92767	1397
2.93133	1231
2.93500	1085
2.93867	958
2.94233	844
2.94600	746
2.94967	662
2.95333	589
2.95700	527
2.96067	472
2.96433	422
2.96800	378
2.97167	342
2.97533	311
2.97900	284
2.98267	259
2.98633	237
2.99000	217
2.99367	199
2.99733	184
3.00100	173
3.00467	165
3.00833	159
3.01200	152
3.01567	144
3.01933	138
3.02300	133
3.02667	129
3.03033	125
3.03400	122
3.03767	120
3.04133	116
3.04500	111
3.04867	107
3.05233	106
3.05600	107
3.05967	107
3.06333	106
3.06700	105
3.07067	106
3.07433	105
3.07800	106
3.08167	105
3.08533	104
3.08900	104
3.09267	103
3.09633	101
3.10000	100
3.10367	98
3.10733	97
3.11100	98
3.11467	100
3.11833	96
3.12200	74
3.12567	44
3.12933	20
3.13300	15
3.13667	28
3.14033	55
3.14400	90
3.14767	129
3.15133	174
3.15500	222
3.15867	270
3.16233	317
3.16600	361
3.16967	402
3.17333	441
3.17700	474
3.18067	501
3.18433	525
3.18800	547
3.19167	566
3.19533	581
3.19900	595
3.20267	609
3.20633	621
3.21000	632
3.21367	640
3.21733	646
3.22100	653
3.22467	661
3.22833	668
3.23200	675
3.23567	680
3.23933	686
3.24300	692
3.24667	697
3.25033	704
3.25400	710
3.25767	717
3.26133	723
3.26500	728
3.26867	731
3.27233	734
3.27600	737
3.27967	742
3.28333	750
3.28700	756
3.29067	760
3.29433	763
3.29800	767
3.30167	771
3.30533	775
3.30900	778
3.31267	781
3.31633	784
3.32000	787
3.32367	790
3.32733	793
3.33100	794
3.33467	796
3.33833	799
3.34200	800
3.34567	800
3.34933	798
3.35300	797
3.35667	795
3.36033	793
3.36400	793
3.36767	791
3.37133	789
3.37500	789
3.37867	786
3.38233	784
3.38600	782
3.38967	781
3.39333	781
3.39700	779
3.40067	777
3.40433	775
3.40800	774
3.41167	772
3.41533	770
3.41900	769
3.42267	767
3.42633	765
3.43000	765
3.43367	765
3.43733	764
3.44100	762
3.44467	758
3.44833	754
3.45200	750
3.45567	745
3.45933	743
3.46300	740
3.46667	741
3.47033	741
3.47400	737
3.47767	735
3.48133	734
3.48500	733
3.48867	730
3.49233	729
3.49600	729
3.49967	728
3.50333	726
3.50700	726
3.51067	727
3.51433	727
3.51800	728
3.52167	726
3.52533	723
3.52900	721
3.53267	720
3.53633	719
3.54000	718
3.54367	716
3.54733	714
3.55100	712
3.55467	710
3.55833	709
3.56200	709
3.56567	707
3.56933	708
3.57300	709
3.57667	709
3.58033	708
3.58400	709
3.58767	711
3.59133	713
3.59500	713
3.59867	711
3.60233	708
3.60600	706
3.60967	705
3.61333	704
3.61700	702
3.62067	700
3.62433	697
3.62800	697
3.63167	695
3.63533	692
3.63900	690
3.64267	688
3.64633	687
3.65000	689
3.65367	687
3.65733	686
3.66100	686
3.66467	682
3.66833	678
3.67200	676
3.67567	676
3.67933	675
3.68300	673
3.68667	673
3.69033	671
3.69400	668
3.69767	665
3.70133	660
3.70500	659
3.70867	660
3.71233	662
3.71600	660
3.71967	657
3.72333	655
3.72700	654
3.73067	652
3.73433	650
3.73800	647
3.74167	645
3.74533	640
3.74900	639
3.75267	638
3.75633	636
3.76000	634
3.76367	631
3.76733	628
3.77100	626
3.77467	625
3.77833	625
3.78200	625
3.78567	625
3.78933	623
3.79300	620
3.79667	617
3.80033	613
3.80400	612
3.80767	610
3.81133	608
3.81500	607
3.81867	606
3.82233	604
3.82600	604
3.82967	602
3.83333	600
3.83700	600
3.84067	598
3.84433	596
3.84800	591
3.85167	587
3.85533	585
3.85900	584
3.86267	583
3.86633	581
3.87000	578
3.87367	576
3.87733	572
3.88100	571
3.88467	571
3.88833	570
3.89200	568
3.89567	563
3.89933	560
3.90300	558
3.90667	556
3.91033	555
3.91400	554
3.91767	552
3.92133	550
3.92500	548
3.92867	547
3.93233	546
3.93600	544
3.93967	543
3.94333	541
3.94700	539
3.95067	537
3.95433	537
3.95800	537
3.96167	537
3.96533	537
3.96900	537
3.97267	536
3.97633	536
3.98000	533
3.98367	531
3.98733	528
3.99100	526
3.99467	526
3.99833	523

[Status Trace (Column Oven Temperature)]
Interval(msec)	1000
# of Points	240
Start Time(min)	0.015
End Time(min)	3.998
Intensity Units	
Intensity Multiplier	1
R.Time (min)	Intensity
0.01480	35.00
0.03147	35.00
0.04813	35.00
0.06480	35.00
0.08147	35.01
0.09813	35.01
0.11480	35.00
0.13147	35.01
0.14813	35.00
0.16480	35.01
0.18147	35.01
0.19813	35.01
0.21480	35.01
0.23147	35.02
0.24813	35.03
0.26480	35.04
0.28147	35.04
0.29813	35.02
0.31480	35.01
0.33147	35.01
0.34813	35.00
0.36480	35.01
0.38147	35.00
0.39813	35.00
0.41480	34.99
0.43147	34.99
0.44813	34.99
0.46480	34.99
0.48147	35.01
0.49813	35.01
0.51480	35.02
0.53147	35.02
0.54813	35.02
0.56480	35.00
0.58147	34.99
0.59813	35.00
0.61480	35.00
0.63147	35.00
0.64813	35.00
0.66480	35.00
0.68147	34.99
0.69813	35.00
0.71480	35.00
0.73147	35.01
0.74813	35.01
0.76480	35.02
0.78147	35.01
0.79813	35.00
0.81480	34.99
0.83147	34.98
0.84813	34.98
0.86480	34.99
0.88147	34.99
0.89813	35.00
0.91480	35.00
0.93147	35.01
0.94813	35.01
0.96480	35.01
0.98147	35.01
0.99813	35.02
1.01480	35.02
1.03147	35.02
1.04813	35.02
1.06480	35.02
1.08147	35.02
1.09813	35.01
1.11480	35.02
1.13147	35.02
1.14813	35.03
1.16480	35.03
1.18147	35.03
1.19813	35.03
1.21480	35.02
1.23147	35.01
1.24813	34.99
1.26480	34.99
1.28147	34.99
1.29813	35.00
1.31480	34.99
1.33147	34.99
1.34813	34.99
1.36480	34.99
1.38147	34.99
1.39813	35.00
1.41480	35.00
1.43147	35.00
1.44813	35.00
1.46480	35.00
1.48147	34.99
1.49813	34.99
1.51480	35.00
1.53147	35.00
1.54813	34.99
1.56480	34.99
1.58147	35.01
1.59813	35.03
1.61480	35.12
1.63147	35.26
1.64813	35.48
1.66480	35.75
1.68147	36.12
1.69813	36.48
1.71480	36.83
1.73147	37.18
1.74813	37.49
1.76480	37.79
1.78147	38.12
1.79813	38.46
1.81480	38.79
1.83147	39.13
1.84813	39.46
1.86480	39.79
1.88147	40.14
1.89813	40.46
1.91480	40.80
1.93147	41.13
1.94813	41.45
1.96480	41.78
1.98147	42.10
1.99813	42.43
2.01480	42.76
2.03147	43.09
2.04813	43.40
2.06480	43.72
2.08147	44.05
2.09813	44.36
2.11480	44.70
2.13147	45.04
2.14813	45.36
2.16480	45.67
2.18147	46.00
2.19813	46.34
2.21480	46.68
2.23147	47.01
2.24813	47.32
2.26480	47.66
2.28147	47.98
2.29813	48.33
2.31480	48.66
2.33147	48.99
2.34813	49.29
2.36480	49.51
2.38147	49.61
2.39813	49.60
2.41480	49.62
2.43147	49.61
2.44813	49.63
2.46480	49.64
2.48147	49.65
2.49813	49.68
2.51480	49.68
2.53147	49.70
2.54813	49.70
2.56480	49.74
2.58147	49.75
2.59813	49.76
2.61480	49.76
2.63147	49.78
2.64813	49.79
2.66480	49.82
2.68147	49.83
2.69813	49.83
2.71480	49.84
2.73147	49.85
2.74813	49.86
2.76480	49.86
2.78147	49.86
2.79813	49.85
2.81480	49.85
2.83147	49.87
2.84813	49.89
2.86480	49.89
2.88147	49.90
2.89813	49.90
2.91480	49.90
2.93147	49.89
2.94813	49.90
2.96480	49.90
2.98147	49.91
2.99813	49.93
3.01480	49.94
3.03147	49.95
3.04813	49.96
3.06480	49.98
3.08147	50.00
3.09813	50.00
3.11480	50.02
3.13147	50.04
3.14813	50.05
3.16480	50.06
3.18147	50.07
3.19813	50.09
3.21480	50.09
3.23147	50.09
3.24813	50.10
3.26480	50.10
3.28147	50.10
3.29813	50.09
3.31480	50.10
3.33147	50.11
3.34813	50.11
3.36480	50.09
3.38147	50.08
3.39813	50.07
3.41480	50.06
3.43147	50.03
3.44813	50.02
3.46480	50.01
3.48147	49.99
3.49813	49.99
3.51480	49.99
3.53147	49.99
3.54813	49.99
3.56480	50.00
3.58147	50.01
3.59813	50.02
3.61480	50.02
3.63147	50.02
3.64813	50.02
3.66480	50.03
3.68147	50.03
3.69813	50.03
3.71480	50.02
3.73147	50.02
3.74813	50.03
3.76480	50.05
3.78147	50.05
3.79813	50.05
3.81480	50.04
3.83147	50.04
3.84813	50.04
3.86480	50.04
3.88147	50.04
3.89813	50.03
3.91480	50.03
3.93147	50.04
3.94813	50.04
3.96480	50.05
3.98147	50.06
3.99813	50.06

[Status Trace (Injection Unit Temperature)]
Interval(msec)	1000
# of Points	240
Start Time(min)	0.015
End Time(min)	3.998
Intensity Units	
Intensity Multiplier	1
R.Time (min)	Intensity
0.01480	99.98
0.03147	99.98
0.04813	99.98
0.06480	99.98
0.08147	99.98
0.09813	99.98
0.11480	99.98
0.13147	99.98
0.14813	99.98
0.16480	99.98
0.18147	99.99
0.19813	99.98
0.21480	99.98
0.23147	99.98
0.24813	99.98
0.26480	99.98
0.28147	99.98
0.29813	99.98
0.31480	99.98
0.33147	99.98
0.34813	99.98
0.36480	99.98
0.38147	99.99
0.39813	99.98
0.41480	99.98
0.43147	99.98
0.44813	99.99
0.46480	99.98
0.48147	99.98
0.49813	99.99
0.51480	99.98
0.53147	99.97
0.54813	99.98
0.56480	99.98
0.58147	99.98
0.59813	99.98
0.61480	99.98
0.63147	99.98
0.64813	99.98
0.66480	99.98
0.68147	99.98
0.69813	99.98
0.71480	99.98
0.73147	99.98
0.74813	99.98
0.76480	99.98
0.78147	99.98
0.79813	99.98
0.81480	99.98
0.83147	99.98
0.84813	99.98
0.86480	99.98
0.88147	99.98
0.89813	99.98
0.91480	99.98
0.93147	99.98
0.94813	99.98
0.96480	99.98
0.98147	99.98
0.99813	99.98
1.01480	99.98
1.03147	99.99
1.04813	99.98
1.06480	99.98
1.08147	99.98
1.09813	99.98
1.11480	99.98
1.13147	99.98
1.14813	99.98
1.16480	99.99
1.18147	99.98
1.19813	99.98
1.21480	99.98
1.23147	99.98
1.24813	99.98
1.26480	99.99
1.28147	99.99
1.29813	99.98
1.31480	99.98
1.33147	99.99
1.34813	99.98
1.36480	99.98
1.38147	99.98
1.39813	99.98
1.41480	99.98
1.43147	99.98
1.44813	99.98
1.46480	99.98
1.48147	99.99
1.49813	99.98
1.51480	99.99
1.53147	99.98
1.54813	99.98
1.56480	99.98
1.58147	99.98
1.59813	99.98
1.61480	99.98
1.63147	99.98
1.64813	99.99
1.66480	99.98
1.68147	99.98
1.69813	99.98
1.71480	99.98
1.73147	99.98
1.74813	99.98
1.76480	99.98
1.78147	99.98
1.79813	99.98
1.81480	99.98
1.83147	99.98
1.84813	99.98
1.86480	99.97
1.88147	99.97
1.89813	99.98
1.91480	99.97
1.93147	99.97
1.94813	99.97
1.96480	99.97
1.98147	99.97
1.99813	99.97
2.01480	99.97
2.03147	99.97
2.04813	99.96
2.06480	99.97
2.08147	99.97
2.09813	99.96
2.11480	99.97
2.13147	99.97
2.14813	99.97
2.16480	99.97
2.18147	99.97
2.19813	99.97
2.21480	99.97
2.23147	99.97
2.24813	99.97
2.26480	99.97
2.28147	99.97
2.29813	99.97
2.31480	99.97
2.33147	99.97
2.34813	99.97
2.36480	99.97
2.38147	99.97
2.39813	99.97
2.41480	99.97
2.43147	99.97
2.44813	99.97
2.46480	99.97
2.48147	99.98
2.49813	99.98
2.51480	99.98
2.53147	99.97
2.54813	99.98
2.56480	99.98
2.58147	99.98
2.59813	99.98
2.61480	99.98
2.63147	99.98
2.64813	99.99
2.66480	99.98
2.68147	99.98
2.69813	99.98
2.71480	99.98
2.73147	99.98
2.74813	99.99
2.76480	99.99
2.78147	99.99
2.79813	99.99
2.81480	99.99
2.83147	99.99
2.84813	99.99
2.86480	100.00
2.88147	100.00
2.89813	100.00
2.91480	100.00
2.93147	100.00
2.94813	100.00
2.96480	100.00
2.98147	100.00
2.99813	100.00
3.01480	100.01
3.03147	100.00
3.04813	100.01
3.06480	100.01
3.08147	100.01
3.09813	100.01
3.11480	100.01
3.13147	100.01
3.14813	100.02
3.16480	100.02
3.18147	100.02
3.19813	100.02
3.21480	100.02
3.23147	100.02
3.24813	100.02
3.26480	100.02
3.28147	100.02
3.29813	100.02
3.31480	100.03
3.33147	100.03
3.34813	100.03
3.36480	100.03
3.38147	100.03
3.39813	100.03
3.41480	100.03
3.43147	100.03
3.44813	100.03
3.46480	100.03
3.48147	100.04
3.49813	100.04
3.51480	100.04
3.53147	100.04
3.54813	100.04
3.56480	100.04
3.58147	100.04
3.59813	100.04
3.61480	100.04
3.63147	100.04
3.64813	100.04
3.66480	100.04
3.68147	100.05
3.69813	100.04
3.71480	100.05
3.73147	100.05
3.74813	100.05
3.76480	100.05
3.78147	100.05
3.79813	100.05
3.81480	100.05
3.83147	100.05
3.84813	100.05
3.86480	100.05
3.88147	100.05
3.89813	100.05
3.91480	100.05
3.93147	100.05
3.94813	100.05
3.96480	100.05
3.98147	100.05
3.99813	100.05

[Status Trace (Carrier Gas Pressure)]
Interval(msec)	1000
# of Points	240
Start Time(min)	0.015
End Time(min)	3.998
Intensity Units	
Intensity Multiplier	1
R.Time (min)	Intensity
0.01480	57.23
0.03147	55.71
0.04813	58.02
0.06480	59.87
0.08147	58.56
0.09813	57.98
0.11480	58.00
0.13147	58.01
0.14813	58.01
0.16480	58.00
0.18147	58.00
0.19813	58.00
0.21480	58.00
0.23147	58.00
0.24813	58.00
0.26480	58.00
0.28147	58.00
0.29813	58.00
0.31480	58.00
0.33147	58.00
0.34813	58.00
0.36480	58.00
0.38147	58.00
0.39813	58.00
0.41480	58.00
0.43147	58.00
0.44813	58.00
0.46480	58.00
0.48147	58.00
0.49813	58.00
0.51480	58.00
0.53147	58.00
0.54813	58.00
0.56480	58.00
0.58147	58.00
0.59813	58.00
0.61480	58.00
0.63147	58.00
0.64813	58.00
0.66480	58.00
0.68147	58.00
0.69813	58.00
0.71480	58.00
0.73147	58.00
0.74813	58.00
0.76480	58.00
0.78147	58.00
0.79813	58.00
0.81480	58.00
0.83147	58.00
0.84813	58.00
0.86480	58.00
0.88147	58.00
0.89813	58.00
0.91480	58.00
0.93147	58.00
0.94813	58.00
0.96480	58.00
0.98147	58.00
0.99813	58.00
1.01480	58.00
1.03147	58.00
1.04813	58.00
1.06480	58.00
1.08147	58.00
1.09813	58.00
1.11480	58.00
1.13147	58.00
1.14813	58.00
1.16480	58.00
1.18147	58.00
1.19813	58.00
1.21480	58.00
1.23147	58.00
1.24813	58.00
1.26480	58.00
1.28147	58.00
1.29813	58.00
1.31480	58.00
1.33147	58.00
1.34813	58.00
1.36480	58.00
1.38147	58.00
1.39813	58.00
1.41480	58.00
1.43147	58.00
1.44813	58.00
1.46480	58.00
1.48147	58.00
1.49813	58.00
1.51480	58.00
1.53147	58.00
1.54813	58.00
1.56480	58.00
1.58147	58.00
1.59813	58.00
1.61480	58.00
1.63147	58.00
1.64813	58.00
1.66480	58.00
1.68147	58.01
1.69813	58.00
1.71480	58.00
1.73147	58.00
1.74813	58.00
1.76480	58.00
1.78147	58.00
1.79813	58.00
1.81480	58.00
1.83147	58.00
1.84813	58.00
1.86480	58.00
1.88147	58.00
1.89813	58.00
1.91480	58.00
1.93147	58.00
1.94813	58.00
1.96480	58.00
1.98147	58.00
1.99813	58.00
2.01480	58.00
2.03147	58.00
2.04813	58.00
2.06480	58.00
2.08147	58.00
2.09813	58.00
2.11480	58.00
2.13147	58.00
2.14813	58.00
2.16480	58.00
2.18147	58.00
2.19813	58.00
2.21480	58.00
2.23147	58.00
2.24813	58.00
2.26480	58.00
2.28147	58.00
2.29813	58.00
2.31480	58.00
2.33147	58.00
2.34813	58.00
2.36480	58.00
2.38147	57.99
2.39813	57.99
2.41480	58.00
2.43147	58.00
2.44813	58.00
2.46480	58.00
2.48147	58.00
2.49813	58.00
2.51480	57.99
2.53147	57.99
2.54813	58.00
2.56480	58.00
2.58147	58.00
2.59813	58.00
2.61480	58.00
2.63147	58.00
2.64813	58.00
2.66480	58.00
2.68147	58.00
2.69813	58.00
2.71480	58.00
2.73147	58.00
2.74813	58.00
2.76480	58.00
2.78147	58.00
2.79813	58.00
2.81480	58.00
2.83147	58.00
2.84813	58.00
2.86480	58.00
2.88147	58.00
2.89813	58.00
2.91480	58.00
2.93147	58.00
2.94813	58.00
2.96480	58.00
2.98147	58.00
2.99813	58.00
3.01480	58.00
3.03147	58.00
3.04813	58.00
3.06480	58.00
3.08147	58.00
3.09813	58.00
3.11480	58.00
3.13147	58.00
3.14813	58.00
3.16480	58.00
3.18147	58.00
3.19813	58.00
3.21480	58.00
3.23147	58.00
3.24813	58.00
3.26480	58.00
3.28147	58.00
3.29813	58.00
3.31480	58.00
3.33147	58.00
3.34813	58.00
3.36480	58.00
3.38147	58.00
3.39813	58.00
3.41480	58.00
3.43147	58.00
3.44813	58.00
3.46480	58.00
3.48147	58.00
3.49813	58.00
3.51480	58.00
3.53147	58.00
3.54813	58.00
3.56480	58.00
3.58147	58.00
3.59813	58.00
3.61480	58.00
3.63147	58.00
3.64813	58.00
3.66480	58.00
3.68147	58.00
3.69813	58.00
3.71480	58.00
3.73147	58.00
3.74813	58.00
3.76480	58.00
3.78147	58.00
3.79813	58.00
3.81480	58.00
3.83147	58.00
3.84813	58.00
3.86480	58.00
3.88147	58.00
3.89813	58.00
3.91480	58.00
3.93147	58.00
3.94813	58.00
3.96480	58.00
3.98147	58.00
3.99813	58.00

[Status Trace (Carrier Gas Flow)]
Interval(msec)	1000
# of Points	240
Start Time(min)	0.015
End Time(min)	3.998
Intensity Units	
Intensity Multiplier	1
R.Time (min)	Intensity
0.01480	33.84
0.03147	34.54
0.04813	34.55
0.06480	34.51
0.08147	34.50
0.09813	34.52
0.11480	34.52
0.13147	34.51
0.14813	34.52
0.16480	34.52
0.18147	34.52
0.19813	34.52
0.21480	34.52
0.23147	34.52
0.24813	34.52
0.26480	34.52
0.28147	34.52
0.29813	34.52
0.31480	34.52
0.33147	34.53
0.34813	34.52
0.36480	34.52
0.38147	34.52
0.39813	34.53
0.41480	34.52
0.43147	34.52
0.44813	34.52
0.46480	34.52
0.48147	34.52
0.49813	34.52
0.51480	34.52
0.53147	34.52
0.54813	34.52
0.56480	34.52
0.58147	34.52
0.59813	34.52
0.61480	34.52
0.63147	34.52
0.64813	34.52
0.66480	34.52
0.68147	34.52
0.69813	34.52
0.71480	34.52
0.73147	34.52
0.74813	34.52
0.76480	34.52
0.78147	34.52
0.79813	34.52
0.81480	34.52
0.83147	34.52
0.84813	34.52
0.86480	34.52
0.88147	34.52
0.89813	34.52
0.91480	34.52
0.93147	34.52
0.94813	34.52
0.96480	34.52
0.98147	34.52
0.99813	34.52
1.01480	34.52
1.03147	34.52
1.04813	34.52
1.06480	34.52
1.08147	34.51
1.09813	34.52
1.11480	34.52
1.13147	34.51
1.14813	34.52
1.16480	34.52
1.18147	34.52
1.19813	34.52
1.21480	34.51
1.23147	34.52
1.24813	34.51
1.26480	34.52
1.28147	34.53
1.29813	34.53
1.31480	34.51
1.33147	34.51
1.34813	34.52
1.36480	34.52
1.38147	34.51
1.39813	34.52
1.41480	34.51
1.43147	34.52
1.44813	34.52
1.46480	34.52
1.48147	34.52
1.49813	34.52
1.51480	34.52
1.53147	34.52
1.54813	34.51
1.56480	34.52
1.58147	34.52
1.59813	34.51
1.61480	34.52
1.63147	34.52
1.64813	34.52
1.66480	34.52
1.68147	34.52
1.69813	34.52
1.71480	34.52
1.73147	34.52
1.74813	34.52
1.76480	34.52
1.78147	34.52
1.79813	34.52
1.81480	34.52
1.83147	34.52
1.84813	34.52
1.86480	34.52
1.88147	34.51
1.89813	34.52
1.91480	34.52
1.93147	34.52
1.94813	34.52
1.96480	34.52
1.98147	34.52
1.99813	34.52
2.01480	34.52
2.03147	34.52
2.04813	34.52
2.06480	34.51
2.08147	34.51
2.09813	34.52
2.11480	34.52
2.13147	34.52
2.14813	34.52
2.16480	34.52
2.18147	34.52
2.19813	34.52
2.21480	34.52
2.23147	34.52
2.24813	34.52
2.26480	34.52
2.28147	34.52
2.29813	34.52
2.31480	34.52
2.33147	34.52
2.34813	34.52
2.36480	34.52
2.38147	34.52
2.39813	34.52
2.41480	34.51
2.43147	34.52
2.44813	34.52
2.46480	34.52
2.48147	34.52
2.49813	34.52
2.51480	34.52
2.53147	34.52
2.54813	34.52
2.56480	34.52
2.58147	34.52
2.59813	34.52
2.61480	34.53
2.63147	34.52
2.64813	34.52
2.66480	34.52
2.68147	34.51
2.69813	34.51
2.71480	34.52
2.73147	34.52
2.74813	34.52
2.76480	34.52
2.78147	34.51
2.79813	34.52
2.81480	34.52
2.83147	34.52
2.84813	34.52
2.86480	34.52
2.88147	34.52
2.89813	34.52
2.91480	34.51
2.93147	34.52
2.94813	34.52
2.96480	34.52
2.98147	34.52
2.99813	34.52
3.01480	34.52
3.03147	34.52
3.04813	34.52
3.06480	34.52
3.08147	34.52
3.09813	34.52
3.11480	34.52
3.13147	34.52
3.14813	34.52
3.16480	34.52
3.18147	34.52
3.19813	34.52
3.21480	34.52
3.23147	34.52
3.24813	34.52
3.26480	34.52
3.28147	34.52
3.29813	34.51
3.31480	34.52
3.33147	34.52
3.34813	34.52
3.36480	34.52
3.38147	34.52
3.39813	34.52
3.41480	34.52
3.43147	34.52
3.44813	34.52
3.46480	34.52
3.48147	34.52
3.49813	34.52
3.51480	34.52
3.53147	34.52
3.54813	34.52
3.56480	34.52
3.58147	34.51
3.59813	34.52
3.61480	34.52
3.63147	34.51
3.64813	34.52
3.66480	34.52
3.68147	34.52
3.69813	34.52
3.71480	34.52
3.73147	34.52
3.74813	34.52
3.76480	34.52
3.78147	34.52
3.79813	34.52
3.81480	34.52
3.83147	34.52
3.84813	34.52
3.86480	34.53
3.88147	34.52
3.89813	34.51
3.91480	34.52
3.93147	34.52
3.94813	34.52
3.96480	34.52
3.98147	34.52
3.99813	34.52

[Status Trace (Column Flow)]
Interval(msec)	1000
# of Points	240
Start Time(min)	0.015
End Time(min)	3.998
Intensity Units	
Intensity Multiplier	1
R.Time (min)	Intensity
0.01480	5.45
0.03147	5.27
0.04813	5.54
0.06480	5.76
0.08147	5.60
0.09813	5.53
0.11480	5.54
0.13147	5.54
0.14813	5.54
0.16480	5.54
0.18147	5.54
0.19813	5.54
0.21480	5.54
0.23147	5.54
0.24813	5.54
0.26480	5.54
0.28147	5.54
0.29813	5.54
0.31480	5.54
0.33147	5.54
0.34813	5.54
0.36480	5.54
0.38147	5.54
0.39813	5.54
0.41480	5.54
0.43147	5.54
0.44813	5.54
0.46480	5.54
0.48147	5.54
0.49813	5.54
0.51480	5.54
0.53147	5.54
0.54813	5.54
0.56480	5.54
0.58147	5.54
0.59813	5.54
0.61480	5.54
0.63147	5.54
0.64813	5.54
0.66480	5.54
0.68147	5.54
0.69813	5.54
0.71480	5.54
0.73147	5.54
0.74813	5.54
0.76480	5.54
0.78147	5.54
0.79813	5.54
0.81480	5.54
0.83147	5.54
0.84813	5.54
0.86480	5.54
0.88147	5.54
0.89813	5.54
0.91480	5.54
0.93147	5.54
0.94813	5.54
0.96480	5.54
0.98147	5.54
0.99813	5.54
1.01480	5.54
1.03147	5.54
1.04813	5.54
1.06480	5.54
1.08147	5.54
1.09813	5.54
1.11480	5.54
1.13147	5.54
1.14813	5.54
1.16480	5.54
1.18147	5.54
1.19813	5.54
1.21480	5.54
1.23147	5.54
1.24813	5.54
1.26480	5.54
1.28147	5.54
1.29813	5.54
1.31480	5.54
1.33147	5.54
1.34813	5.54
1.36480	5.54
1.38147	5.54
1.39813	5.54
1.41480	5.54
1.43147	5.54
1.44813	5.54
1.46480	5.54
1.48147	5.54
1.49813	5.54
1.51480	5.54
1.53147	5.54
1.54813	5.54
1.56480	5.54
1.58147	5.54
1.59813	5.54
1.61480	5.53
1.63147	5.53
1.64813	5.52
1.66480	5.51
1.68147	5.50
1.69813	5.49
1.71480	5.48
1.73147	5.47
1.74813	5.46
1.76480	5.45
1.78147	5.44
1.79813	5.43
1.81480	5.42
1.83147	5.41
1.84813	5.40
1.86480	5.39
1.88147	5.38
1.89813	5.37
1.91480	5.36
1.93147	5.35
1.94813	5.34
1.96480	5.33
1.98147	5.32
1.99813	5.31
2.01480	5.30
2.03147	5.29
2.04813	5.28
2.06480	5.27
2.08147	5.26
2.09813	5.25
2.11480	5.24
2.13147	5.23
2.14813	5.22
2.16480	5.21
2.18147	5.21
2.19813	5.20
2.21480	5.19
2.23147	5.18
2.24813	5.17
2.26480	5.16
2.28147	5.15
2.29813	5.14
2.31480	5.13
2.33147	5.12
2.34813	5.11
2.36480	5.11
2.38147	5.10
2.39813	5.10
2.41480	5.10
2.43147	5.10
2.44813	5.10
2.46480	5.10
2.48147	5.10
2.49813	5.10
2.51480	5.10
2.53147	5.10
2.54813	5.10
2.56480	5.10
2.58147	5.10
2.59813	5.10
2.61480	5.10
2.63147	5.10
2.64813	5.10
2.66480	5.10
2.68147	5.10
2.69813	5.10
2.71480	5.10
2.73147	5.10
2.74813	5.10
2.76480	5.10
2.78147	5.10
2.79813	5.10
2.81480	5.10
2.83147	5.10
2.84813	5.10
2.86480	5.10
2.88147	5.10
2.89813	5.10
2.91480	5.10
2.93147	5.10
2.94813	5.10
2.96480	5.10
2.98147	5.10
2.99813	5.09
3.01480	5.09
3.03147	5.09
3.04813	5.09
3.06480	5.09
3.08147	5.09
3.09813	5.09
3.11480	5.09
3.13147	5.09
3.14813	5.09
3.16480	5.09
3.18147	5.09
3.19813	5.09
3.21480	5.09
3.23147	5.09
3.24813	5.09
3.26480	5.09
3.28147	5.09
3.29813	5.09
3.31480	5.09
3.33147	5.09
3.34813	5.09
3.36480	5.09
3.38147	5.09
3.39813	5.09
3.41480	5.09
3.43147	5.09
3.44813	5.09
3.46480	5.09
3.48147	5.09
3.49813	5.09
3.51480	5.09
3.53147	5.09
3.54813	5.09
3.56480	5.09
3.58147	5.09
3.59813	5.09
3.61480	5.09
3.63147	5.09
3.64813	5.09
3.66480	5.09
3.68147	5.09
3.69813	5.09
3.71480	5.09
3.73147	5.09
3.74813	5.09
3.76480	5.09
3.78147	5.09
3.79813	5.09
3.81480	5.09
3.83147	5.09
3.84813	5.09
3.86480	5.09
3.88147	5.09
3.89813	5.09
3.91480	5.09
3.93147	5.09
3.94813	5.09
3.96480	5.09
3.98147	5.09
3.99813	5.09

[Status Trace (Linear Velocity)]
Interval(msec)	1000
# of Points	240
Start Time(min)	0.015
End Time(min)	3.998
Intensity Units	
Intensity Multiplier	1
R.Time (min)	Intensity
0.01480	38.52
0.03147	37.52
0.04813	39.03
0.06480	40.24
0.08147	39.38
0.09813	39.00
0.11480	39.02
0.13147	39.03
0.14813	39.02
0.16480	39.02
0.18147	39.02
0.19813	39.02
0.21480	39.02
0.23147	39.02
0.24813	39.02
0.26480	39.02
0.28147	39.02
0.29813	39.02
0.31480	39.02
0.33147	39.02
0.34813	39.02
0.36480	39.02
0.38147	39.02
0.39813	39.02
0.41480	39.02
0.43147	39.02
0.44813	39.02
0.46480	39.02
0.48147	39.02
0.49813	39.02
0.51480	39.02
0.53147	39.02
0.54813	39.02
0.56480	39.02
0.58147	39.02
0.59813	39.02
0.61480	39.02
0.63147	39.02
0.64813	39.02
0.66480	39.02
0.68147	39.02
0.69813	39.02
0.71480	39.02
0.73147	39.02
0.74813	39.02
0.76480	39.02
0.78147	39.02
0.79813	39.02
0.81480	39.02
0.83147	39.02
0.84813	39.02
0.86480	39.02
0.88147	39.02
0.89813	39.02
0.91480	39.02
0.93147	39.02
0.94813	39.02
0.96480	39.02
0.98147	39.02
0.99813	39.02
1.01480	39.02
1.03147	39.02
1.04813	39.02
1.06480	39.02
1.08147	39.02
1.09813	39.02
1.11480	39.02
1.13147	39.02
1.14813	39.02
1.16480	39.02
1.18147	39.02
1.19813	39.02
1.21480	39.02
1.23147	39.02
1.24813	39.02
1.26480	39.02
1.28147	39.02
1.29813	39.02
1.31480	39.02
1.33147	39.02
1.34813	39.02
1.36480	39.02
1.38147	39.02
1.39813	39.02
1.41480	39.02
1.43147	39.02
1.44813	39.02
1.46480	39.02
1.48147	39.02
1.49813	39.02
1.51480	39.02
1.53147	39.02
1.54813	39.02
1.56480	39.02
1.58147	39.02
1.59813	39.02
1.61480	39.01
1.63147	39.00
1.64813	38.98
1.66480	38.95
1.68147	38.92
1.69813	38.88
1.71480	38.85
1.73147	38.81
1.74813	38.78
1.76480	38.75
1.78147	38.72
1.79813	38.69
1.81480	38.66
1.83147	38.63
1.84813	38.60
1.86480	38.57
1.88147	38.53
1.89813	38.50
1.91480	38.47
1.93147	38.44
1.94813	38.41
1.96480	38.38
1.98147	38.35
1.99813	38.32
2.01480	38.29
2.03147	38.26
2.04813	38.23
2.06480	38.20
2.08147	38.17
2.09813	38.14
2.11480	38.11
2.13147	38.08
2.14813	38.05
2.16480	38.02
2.18147	37.99
2.19813	37.96
2.21480	37.93
2.23147	37.90
2.24813	37.87
2.26480	37.84
2.28147	37.82
2.29813	37.78
2.31480	37.75
2.33147	37.73
2.34813	37.70
2.36480	37.68
2.38147	37.67
2.39813	37.67
2.41480	37.67
2.43147	37.67
2.44813	37.67
2.46480	37.67
2.48147	37.67
2.49813	37.66
2.51480	37.66
2.53147	37.65
2.54813	37.66
2.56480	37.66
2.58147	37.66
2.59813	37.66
2.61480	37.66
2.63147	37.66
2.64813	37.65
2.66480	37.65
2.68147	37.65
2.69813	37.65
2.71480	37.65
2.73147	37.65
2.74813	37.65
2.76480	37.65
2.78147	37.65
2.79813	37.65
2.81480	37.65
2.83147	37.65
2.84813	37.65
2.86480	37.65
2.88147	37.64
2.89813	37.64
2.91480	37.65
2.93147	37.65
2.94813	37.65
2.96480	37.65
2.98147	37.64
2.99813	37.64
3.01480	37.64
3.03147	37.64
3.04813	37.64
3.06480	37.64
3.08147	37.64
3.09813	37.64
3.11480	37.63
3.13147	37.63
3.14813	37.63
3.16480	37.63
3.18147	37.63
3.19813	37.63
3.21480	37.63
3.23147	37.63
3.24813	37.63
3.26480	37.63
3.28147	37.63
3.29813	37.63
3.31480	37.63
3.33147	37.63
3.34813	37.63
3.36480	37.63
3.38147	37.63
3.39813	37.63
3.41480	37.63
3.43147	37.63
3.44813	37.63
3.46480	37.64
3.48147	37.64
3.49813	37.64
3.51480	37.64
3.53147	37.64
3.54813	37.64
3.56480	37.64
3.58147	37.64
3.59813	37.63
3.61480	37.63
3.63147	37.63
3.64813	37.63
3.66480	37.63
3.68147	37.63
3.69813	37.63
3.71480	37.63
3.73147	37.63
3.74813	37.63
3.76480	37.63
3.78147	37.63
3.79813	37.63
3.81480	37.63
3.83147	37.63
3.84813	37.63
3.86480	37.63
3.88147	37.63
3.89813	37.63
3.91480	37.63
3.93147	37.63
3.94813	37.63
3.96480	37.63
3.98147	37.63
3.99813	37.63

