[Header]
Application Name	LabSolutions
Version	5.110
Data File Name	C:\Users\User\Desktop\GC Analyses\Jack\Nachusa Grasslands Sampling\T3 Timepoint July 12th\T3_07122022_089.gcd
Output Date	3/14/2023
Output Time	3:43:36 PM

[File Information]
Type	Data File
Generated	3/14/2023 12:28:02 AM
Generated by	System Administrator
Modified	3/14/2023 12:34:43 AM
Modified by	System Administrator

[Sample Information]
Operator Name	System Administrator
Acquired	3/14/2023 12:30:42 AM
Sample Type	0:Unknown
Level	0
Sample Name	089
Sample ID	089
ISTD Amount1	1
ISTD Amount2	1
ISTD Amount3	1
ISTD Amount4	1
ISTD Amount5	1
ISTD Amount6	1
ISTD Amount7	1
ISTD Amount8	1
ISTD Amount9	1
ISTD Amount10	1
ISTD Amount11	1
ISTD Amount12	1
ISTD Amount13	1
ISTD Amount14	1
ISTD Amount15	1
ISTD Amount16	1
ISTD Amount17	1
ISTD Amount18	1
ISTD Amount19	1
ISTD Amount20	1
ISTD Amount21	1
ISTD Amount22	1
ISTD Amount23	1
ISTD Amount24	1
ISTD Amount25	1
ISTD Amount26	1
ISTD Amount27	1
ISTD Amount28	1
ISTD Amount29	1
ISTD Amount30	1
ISTD Amount31	1
ISTD Amount32	1
Sample Amount	1
Dilution Factor	1
Vial#	88
Injection Volume	1
Injection Count	1
Bar Code	

[Original Files]
Data File	C:\Users\User\Desktop\GC Analyses\Jack\Nachusa Grasslands Sampling\T3 Timepoint July 12th\T3_07122022_089.gcd
Method File	C:\LabSolutions\Data\GHG_4min_2022\ghg3_togas_w_acet_4 min_new_int.gcm
Batch File	C:\LabSolutions\Data\AutoSamplerTesting\T3_07122022.gcb
Report Format File	c:\LabSolutions\System\DEFAULT.lsr

[File Description]


[Configuration]
Instrument Name	C0B7VH3-Instrument1
Instrument #	1
Line #	1
# of Detectors	3
Detector ID	DET#1	DET#2	DET#3
Detector Name	FID	PTCD	ECD
# of Channels	1	1	1

[Peak Table(Ch1)]
# of Peaks	3
Peak#	R.Time	I.Time	F.Time	Area	Height	A/H	Conc.	Mark	ID#	Name	k'	Plate #	Plate Ht.	Tailing	Resolution	Sep.Factor	Area Ratio	Height Ratio	Conc. %	Norm Conc.
1	1.454	1.391	1.476	776	512	1.515	5.476	   	1	CO	0.000	25034	5.992	0.703	0.000	0.000	0	0	0.593	0.593
2	1.571	1.531	1.648	20352	10253	1.985	393.523	   	2	CH4	0.081	11506	13.037	1.148	2.462	0.000	0	0	42.639	42.639
3	2.000	1.952	2.312	2087542	1000180	2.087	523.917	   	3	CO2	0.376	17476	8.583	1.179	7.204	4.656	0	0	56.768	56.768

[Peak Table(Ch2)]
# of Peaks	0

[Peak Table(Ch3)]
# of Peaks	5
Peak#	R.Time	I.Time	F.Time	Area	Height	A/H	Conc.	Mark	ID#	Name	k'	Plate #	Plate Ht.	Tailing	Resolution	Sep.Factor	Area Ratio	Height Ratio	Conc. %	Norm Conc.
1	2.458	2.440	2.510	1353	594	2.278	0.000	   			0.000	18722	8.012	0.000	0.000	0.000	0	0	0.000	0.000
2	2.528	2.510	2.561	378	196	1.935	0.000	 V 			0.028	21088	7.113	0.000	0.985	0.000	0	0	0.000	0.000
3	2.616	2.583	2.660	167	62	2.681	0.000	   			0.064	20388	7.357	1.216	1.231	2.263	0	0	0.000	0.000
4	2.880	2.704	3.093	58118	14723	3.948	1.484	   	1	N2O	0.172	12562	11.941	1.572	2.999	2.674	0	0	100.000	100.000
5	3.316	3.096	3.995	22382	739	30.306	0.000	   	2	SF6	0.349	213	702.792	1.986	0.863	2.035	0	0	0.000	0.000

[Compound Results(Ch1)]
# of IDs	6
ID#	Name	R.Time	Area	Height	Conc.	Curve	3rd	2nd	1st	Constant	Area Ratio	Height Ratio	Conc. %	Norm Conc.
1	CO	1.454	776	512	5.476	Linear	0.000000e+00	0.000000e+00	1.416423e+002	0.000000e+00	0	0	0.593	0.593
2	CH4	1.571	20352	10253	393.523	Linear	0.000000e+00	0.000000e+00	5.171738e+001	0.000000e+00	0	0	42.639	42.639
3	CO2	2.000	2087542	1000180	523.917	Linear	0.000000e+00	0.000000e+00	3.984494e+003	0.000000e+00	0	0	56.768	56.768
4	Ethylene	0.000	0	0	0.000	Linear	0.000000e+00	0.000000e+00	0.000000e+00	0.000000e+00	0	0	0.000	0.000
5	Acetylene	0.000	0	0	0.000	Linear	0.000000e+00	0.000000e+00	0.000000e+00	0.000000e+00	0	0	0.000	0.000
6	Ethane	0.000	0	0	0.000	Linear	0.000000e+00	0.000000e+00	0.000000e+00	0.000000e+00	0	0	0.000	0.000

[Compound Results(Ch2)]
# of IDs	5
ID#	Name	R.Time	Area	Height	Conc.	Curve	3rd	2nd	1st	Constant	Area Ratio	Height Ratio	Conc. %	Norm Conc.
1	Hydrogen	0.000	0	0	0.000	Linear	0.000000e+00	0.000000e+00	0.000000e+00	0.000000e+00	0	0	0.000	0.000
2	Oxygen	0.000	0	0	0.000	Linear	0.000000e+00	0.000000e+00	0.000000e+00	0.000000e+00	0	0	0.000	0.000
3	Nitrogen	0.000	0	0	0.000	Linear	0.000000e+00	0.000000e+00	0.000000e+00	0.000000e+00	0	0	0.000	0.000
4	Methane	0.000	0	0	0.000	Linear	0.000000e+00	0.000000e+00	0.000000e+00	0.000000e+00	0	0	0.000	0.000
5	Carbon Monoxide	0.000	0	0	0.000	Linear	0.000000e+00	0.000000e+00	0.000000e+00	0.000000e+00	0	0	0.000	0.000

[Compound Results(Ch3)]
# of IDs	2
ID#	Name	R.Time	Area	Height	Conc.	Curve	3rd	2nd	1st	Constant	Area Ratio	Height Ratio	Conc. %	Norm Conc.
1	N2O	2.880	58118	14723	1.484	Linear	0.000000e+00	0.000000e+00	3.915173e+004	0.000000e+00	0	0	100.000	100.000
2	SF6	3.316	22382	739	0.000	Linear	0.000000e+00	0.000000e+00	0.000000e+00	0.000000e+00	0	0	0.000	0.000

[Group Results(Ch1)]
# of Groups	0

[Group Results(Ch2)]
# of Groups	0

[Group Results(Ch3)]
# of Groups	0

[Chromatogram (Ch1)]
Interval(msec)	220
# of Points	1091
Start Time(min)	0.002
End Time(min)	3.998
R.Time (min)	Intensity
0.00167	8
0.00533	16
0.00900	18
0.01267	20
0.01633	25
0.02000	31
0.02367	31
0.02733	29
0.03100	26
0.03467	24
0.03833	22
0.04200	15
0.04567	3
0.04933	-9
0.05300	-18
0.05667	-21
0.06033	-22
0.06400	-21
0.06767	-17
0.07133	-11
0.07500	-4
0.07867	3
0.08233	7
0.08600	10
0.08967	19
0.09333	29
0.09700	36
0.10067	39
0.10433	40
0.10800	38
0.11167	33
0.11533	28
0.11900	22
0.12267	17
0.12633	20
0.13000	21
0.13367	22
0.13733	16
0.14100	4
0.14467	-5
0.14833	-5
0.15200	1
0.15567	12
0.15933	25
0.16300	42
0.16667	55
0.17033	59
0.17400	54
0.17767	46
0.18133	38
0.18500	34
0.18867	37
0.19233	41
0.19600	44
0.19967	47
0.20333	55
0.20700	62
0.21067	64
0.21433	64
0.21800	65
0.22167	67
0.22533	76
0.22900	90
0.23267	101
0.23633	104
0.24000	104
0.24367	95
0.24733	88
0.25100	87
0.25467	93
0.25833	105
0.26200	117
0.26567	123
0.26933	126
0.27300	127
0.27667	124
0.28033	117
0.28400	108
0.28767	97
0.29133	90
0.29500	92
0.29867	98
0.30233	103
0.30600	101
0.30967	93
0.31333	88
0.31700	87
0.32067	91
0.32433	95
0.32800	95
0.33167	91
0.33533	88
0.33900	84
0.34267	76
0.34633	69
0.35000	65
0.35367	66
0.35733	63
0.36100	55
0.36467	43
0.36833	33
0.37200	25
0.37567	23
0.37933	24
0.38300	26
0.38667	27
0.39033	30
0.39400	40
0.39767	49
0.40133	51
0.40500	47
0.40867	42
0.41233	38
0.41600	38
0.41967	43
0.42333	44
0.42700	39
0.43067	35
0.43433	33
0.43800	37
0.44167	40
0.44533	35
0.44900	29
0.45267	23
0.45633	14
0.46000	6
0.46367	4
0.46733	5
0.47100	11
0.47467	22
0.47833	28
0.48200	29
0.48567	30
0.48933	34
0.49300	36
0.49667	37
0.50033	37
0.50400	34
0.50767	36
0.51133	42
0.51500	47
0.51867	45
0.52233	40
0.52600	37
0.52967	33
0.53333	28
0.53700	22
0.54067	20
0.54433	19
0.54800	17
0.55167	17
0.55533	18
0.55900	17
0.56267	14
0.56633	11
0.57000	13
0.57367	20
0.57733	30
0.58100	41
0.58467	48
0.58833	49
0.59200	45
0.59567	40
0.59933	37
0.60300	37
0.60667	37
0.61033	34
0.61400	25
0.61767	17
0.62133	12
0.62500	13
0.62867	14
0.63233	15
0.63600	16
0.63967	17
0.64333	17
0.64700	24
0.65067	38
0.65433	47
0.65800	49
0.66167	46
0.66533	37
0.66900	29
0.67267	29
0.67633	30
0.68000	33
0.68367	36
0.68733	42
0.69100	51
0.69467	57
0.69833	59
0.70200	54
0.70567	45
0.70933	37
0.71300	28
0.71667	16
0.72033	4
0.72400	-0
0.72767	3
0.73133	12
0.73500	24
0.73867	31
0.74233	30
0.74600	26
0.74967	23
0.75333	24
0.75700	26
0.76067	30
0.76433	33
0.76800	34
0.77167	32
0.77533	30
0.77900	31
0.78267	34
0.78633	36
0.79000	38
0.79367	39
0.79733	35
0.80100	29
0.80467	29
0.80833	33
0.81200	39
0.81567	44
0.81933	44
0.82300	42
0.82667	38
0.83033	34
0.83400	34
0.83767	36
0.84133	33
0.84500	28
0.84867	27
0.85233	27
0.85600	27
0.85967	29
0.86333	31
0.86700	32
0.87067	32
0.87433	32
0.87800	34
0.88167	38
0.88533	42
0.88900	44
0.89267	45
0.89633	49
0.90000	56
0.90367	57
0.90733	54
0.91100	47
0.91467	40
0.91833	37
0.92200	36
0.92567	35
0.92933	36
0.93300	31
0.93667	22
0.94033	15
0.94400	12
0.94767	15
0.95133	24
0.95500	37
0.95867	47
0.96233	50
0.96600	45
0.96967	39
0.97333	38
0.97700	35
0.98067	28
0.98433	21
0.98800	16
0.99167	11
0.99533	8
0.99900	9
1.00267	13
1.00633	16
1.01000	20
1.01367	28
1.01733	35
1.02100	40
1.02467	38
1.02833	33
1.03200	36
1.03567	44
1.03933	44
1.04300	37
1.04667	28
1.05033	23
1.05400	19
1.05767	18
1.06133	19
1.06500	27
1.06867	32
1.07233	32
1.07600	32
1.07967	33
1.08333	35
1.08700	41
1.09067	47
1.09433	58
1.09800	71
1.10167	76
1.10533	73
1.10900	68
1.11267	64
1.11633	60
1.12000	56
1.12367	51
1.12733	46
1.13100	43
1.13467	41
1.13833	41
1.14200	42
1.14567	40
1.14933	36
1.15300	36
1.15667	37
1.16033	38
1.16400	39
1.16767	41
1.17133	47
1.17500	54
1.17867	60
1.18233	64
1.18600	67
1.18967	67
1.19333	65
1.19700	58
1.20067	53
1.20433	52
1.20800	59
1.21167	65
1.21533	67
1.21900	72
1.22267	77
1.22633	75
1.23000	70
1.23367	66
1.23733	65
1.24100	64
1.24467	60
1.24833	62
1.25200	69
1.25567	71
1.25933	70
1.26300	67
1.26667	66
1.27033	70
1.27400	74
1.27767	74
1.28133	71
1.28500	68
1.28867	63
1.29233	56
1.29600	51
1.29967	50
1.30333	53
1.30700	54
1.31067	52
1.31433	47
1.31800	38
1.32167	34
1.32533	37
1.32900	40
1.33267	47
1.33633	53
1.34000	52
1.34367	47
1.34733	43
1.35100	40
1.35467	36
1.35833	34
1.36200	35
1.36567	35
1.36933	37
1.37300	42
1.37667	49
1.38033	55
1.38400	57
1.38767	56
1.39133	56
1.39500	55
1.39867	54
1.40233	51
1.40600	49
1.40967	44
1.41333	39
1.41700	41
1.42067	49
1.42433	61
1.42800	70
1.43167	73
1.43533	70
1.43900	69
1.44267	97
1.44633	196
1.45000	341
1.45367	419
1.45733	394
1.46100	291
1.46467	152
1.46833	15
1.47200	-92
1.47567	-145
1.47933	-156
1.48300	-152
1.48667	-144
1.49033	-138
1.49400	-141
1.49767	-152
1.50133	-167
1.50500	-184
1.50867	-198
1.51233	-207
1.51600	-210
1.51967	-207
1.52333	-199
1.52700	-190
1.53067	-178
1.53433	-159
1.53800	-101
1.54167	128
1.54533	807
1.54900	2151
1.55267	4030
1.55633	6044
1.56000	7826
1.56367	9177
1.56733	9988
1.57100	10128
1.57467	9499
1.57833	8206
1.58200	6564
1.58567	4921
1.58933	3509
1.59300	2415
1.59667	1620
1.60033	1059
1.60400	675
1.60767	421
1.61133	254
1.61500	147
1.61867	81
1.62233	40
1.62600	16
1.62967	2
1.63333	-7
1.63700	-15
1.64067	-22
1.64433	-26
1.64800	-24
1.65167	-21
1.65533	-20
1.65900	-22
1.66267	-24
1.66633	-22
1.67000	-15
1.67367	-4
1.67733	6
1.68100	9
1.68467	6
1.68833	0
1.69200	-5
1.69567	-9
1.69933	-12
1.70300	-18
1.70667	-24
1.71033	-29
1.71400	-29
1.71767	-25
1.72133	-19
1.72500	-13
1.72867	-7
1.73233	-2
1.73600	0
1.73967	1
1.74333	0
1.74700	-3
1.75067	-6
1.75433	-12
1.75800	-20
1.76167	-24
1.76533	-24
1.76900	-20
1.77267	-17
1.77633	-14
1.78000	-11
1.78367	-6
1.78733	-4
1.79100	-4
1.79467	1
1.79833	7
1.80200	11
1.80567	13
1.80933	9
1.81300	2
1.81667	-1
1.82033	3
1.82400	5
1.82767	7
1.83133	8
1.83500	7
1.83867	6
1.84233	10
1.84600	17
1.84967	20
1.85333	22
1.85700	20
1.86067	10
1.86433	-2
1.86800	-7
1.87167	-5
1.87533	6
1.87900	23
1.88267	36
1.88633	41
1.89000	39
1.89367	34
1.89733	30
1.90100	30
1.90467	31
1.90833	33
1.91200	36
1.91567	34
1.91933	31
1.92300	29
1.92667	29
1.93033	32
1.93400	39
1.93767	44
1.94133	41
1.94500	39
1.94867	39
1.95233	46
1.95600	127
1.95967	686
1.96333	3515
1.96700	14308
1.97067	45749
1.97433	116595
1.97800	240534
1.98167	411701
1.98533	603796
1.98900	782715
1.99267	919576
1.99633	995168
2.00000	1000272
2.00367	937331
2.00733	821586
2.01100	676840
2.01467	527898
2.01833	393540
2.02200	283424
2.02567	199302
2.02933	138182
2.03300	95291
2.03667	65873
2.04033	45967
2.04400	32581
2.04767	23575
2.05133	17478
2.05500	13301
2.05867	10393
2.06233	8323
2.06600	6827
2.06967	5720
2.07333	4879
2.07700	4229
2.08067	3720
2.08433	3312
2.08800	2981
2.09167	2707
2.09533	2477
2.09900	2279
2.10267	2103
2.10633	1949
2.11000	1815
2.11367	1694
2.11733	1588
2.12100	1496
2.12467	1414
2.12833	1338
2.13200	1271
2.13567	1216
2.13933	1177
2.14300	1150
2.14667	1123
2.15033	1086
2.15400	1035
2.15767	979
2.16133	929
2.16500	880
2.16867	838
2.17233	803
2.17600	770
2.17967	740
2.18333	715
2.18700	695
2.19067	680
2.19433	665
2.19800	650
2.20167	634
2.20533	621
2.20900	611
2.21267	598
2.21633	583
2.22000	569
2.22367	557
2.22733	545
2.23100	532
2.23467	515
2.23833	502
2.24200	496
2.24567	488
2.24933	474
2.25300	460
2.25667	452
2.26033	448
2.26400	447
2.26767	445
2.27133	441
2.27500	437
2.27867	435
2.28233	428
2.28600	418
2.28967	412
2.29333	409
2.29700	411
2.30067	410
2.30433	403
2.30800	398
2.31167	394
2.31533	388
2.31900	387
2.32267	388
2.32633	388
2.33000	388
2.33367	388
2.33733	389
2.34100	394
2.34467	396
2.34833	396
2.35200	394
2.35567	386
2.35933	377
2.36300	369
2.36667	365
2.37033	361
2.37400	359
2.37767	359
2.38133	358
2.38500	357
2.38867	359
2.39233	361
2.39600	364
2.39967	372
2.40333	383
2.40700	394
2.41067	396
2.41433	389
2.41800	375
2.42167	362
2.42533	355
2.42900	350
2.43267	339
2.43633	322
2.44000	310
2.44367	305
2.44733	303
2.45100	305
2.45467	312
2.45833	324
2.46200	340
2.46567	353
2.46933	361
2.47300	361
2.47667	352
2.48033	339
2.48400	329
2.48767	320
2.49133	315
2.49500	317
2.49867	320
2.50233	318
2.50600	317
2.50967	320
2.51333	323
2.51700	322
2.52067	317
2.52433	308
2.52800	299
2.53167	296
2.53533	299
2.53900	308
2.54267	321
2.54633	332
2.55000	338
2.55367	339
2.55733	335
2.56100	331
2.56467	327
2.56833	325
2.57200	325
2.57567	325
2.57933	326
2.58300	329
2.58667	333
2.59033	339
2.59400	344
2.59767	348
2.60133	349
2.60500	345
2.60867	338
2.61233	329
2.61600	325
2.61967	324
2.62333	323
2.62700	321
2.63067	319
2.63433	317
2.63800	316
2.64167	318
2.64533	319
2.64900	316
2.65267	315
2.65633	311
2.66000	312
2.66367	319
2.66733	323
2.67100	324
2.67467	324
2.67833	322
2.68200	319
2.68567	323
2.68933	332
2.69300	337
2.69667	334
2.70033	330
2.70400	328
2.70767	327
2.71133	331
2.71500	338
2.71867	344
2.72233	345
2.72600	346
2.72967	349
2.73333	353
2.73700	357
2.74067	361
2.74433	356
2.74800	349
2.75167	343
2.75533	336
2.75900	334
2.76267	338
2.76633	340
2.77000	340
2.77367	336
2.77733	331
2.78100	324
2.78467	324
2.78833	332
2.79200	340
2.79567	351
2.79933	357
2.80300	362
2.80667	368
2.81033	367
2.81400	363
2.81767	357
2.82133	349
2.82500	342
2.82867	333
2.83233	329
2.83600	330
2.83967	330
2.84333	334
2.84700	340
2.85067	346
2.85433	355
2.85800	361
2.86167	354
2.86533	346
2.86900	346
2.87267	353
2.87633	358
2.88000	366
2.88367	367
2.88733	361
2.89100	356
2.89467	353
2.89833	353
2.90200	357
2.90567	363
2.90933	365
2.91300	368
2.91667	373
2.92033	382
2.92400	383
2.92767	377
2.93133	375
2.93500	377
2.93867	379
2.94233	375
2.94600	368
2.94967	366
2.95333	369
2.95700	377
2.96067	386
2.96433	395
2.96800	398
2.97167	396
2.97533	387
2.97900	373
2.98267	358
2.98633	346
2.99000	341
2.99367	343
2.99733	347
3.00100	349
3.00467	345
3.00833	344
3.01200	346
3.01567	346
3.01933	346
3.02300	351
3.02667	355
3.03033	361
3.03400	367
3.03767	368
3.04133	367
3.04500	366
3.04867	367
3.05233	365
3.05600	362
3.05967	359
3.06333	356
3.06700	358
3.07067	358
3.07433	349
3.07800	343
3.08167	344
3.08533	348
3.08900	351
3.09267	353
3.09633	354
3.10000	357
3.10367	358
3.10733	358
3.11100	359
3.11467	362
3.11833	364
3.12200	362
3.12567	355
3.12933	346
3.13300	339
3.13667	338
3.14033	340
3.14400	343
3.14767	346
3.15133	348
3.15500	347
3.15867	343
3.16233	337
3.16600	329
3.16967	324
3.17333	328
3.17700	331
3.18067	333
3.18433	329
3.18800	324
3.19167	322
3.19533	327
3.19900	334
3.20267	337
3.20633	331
3.21000	322
3.21367	318
3.21733	323
3.22100	329
3.22467	331
3.22833	332
3.23200	331
3.23567	331
3.23933	333
3.24300	337
3.24667	342
3.25033	343
3.25400	344
3.25767	344
3.26133	343
3.26500	341
3.26867	340
3.27233	338
3.27600	339
3.27967	343
3.28333	345
3.28700	344
3.29067	345
3.29433	342
3.29800	337
3.30167	333
3.30533	327
3.30900	321
3.31267	317
3.31633	314
3.32000	309
3.32367	305
3.32733	304
3.33100	303
3.33467	303
3.33833	305
3.34200	308
3.34567	311
3.34933	312
3.35300	314
3.35667	317
3.36033	319
3.36400	323
3.36767	326
3.37133	324
3.37500	325
3.37867	329
3.38233	332
3.38600	332
3.38967	327
3.39333	321
3.39700	318
3.40067	318
3.40433	318
3.40800	321
3.41167	325
3.41533	326
3.41900	325
3.42267	322
3.42633	323
3.43000	322
3.43367	317
3.43733	307
3.44100	298
3.44467	296
3.44833	299
3.45200	304
3.45567	303
3.45933	296
3.46300	290
3.46667	286
3.47033	283
3.47400	279
3.47767	277
3.48133	279
3.48500	285
3.48867	292
3.49233	297
3.49600	295
3.49967	286
3.50333	278
3.50700	274
3.51067	273
3.51433	277
3.51800	285
3.52167	291
3.52533	289
3.52900	286
3.53267	284
3.53633	288
3.54000	296
3.54367	302
3.54733	304
3.55100	304
3.55467	299
3.55833	294
3.56200	286
3.56567	280
3.56933	280
3.57300	280
3.57667	278
3.58033	277
3.58400	280
3.58767	279
3.59133	277
3.59500	277
3.59867	277
3.60233	274
3.60600	265
3.60967	263
3.61333	264
3.61700	272
3.62067	281
3.62433	288
3.62800	288
3.63167	279
3.63533	269
3.63900	260
3.64267	256
3.64633	257
3.65000	259
3.65367	259
3.65733	259
3.66100	260
3.66467	257
3.66833	254
3.67200	252
3.67567	252
3.67933	253
3.68300	254
3.68667	256
3.69033	254
3.69400	250
3.69767	240
3.70133	249
3.70500	256
3.70867	256
3.71233	254
3.71600	255
3.71967	255
3.72333	256
3.72700	256
3.73067	257
3.73433	260
3.73800	266
3.74167	280
3.74533	293
3.74900	293
3.75267	281
3.75633	267
3.76000	253
3.76367	243
3.76733	234
3.77100	224
3.77467	216
3.77833	214
3.78200	213
3.78567	216
3.78933	226
3.79300	230
3.79667	232
3.80033	240
3.80400	251
3.80767	260
3.81133	263
3.81500	262
3.81867	256
3.82233	252
3.82600	247
3.82967	240
3.83333	237
3.83700	235
3.84067	234
3.84433	231
3.84800	228
3.85167	226
3.85533	225
3.85900	223
3.86267	225
3.86633	227
3.87000	227
3.87367	226
3.87733	225
3.88100	227
3.88467	233
3.88833	239
3.89200	239
3.89567	233
3.89933	227
3.90300	221
3.90667	218
3.91033	218
3.91400	224
3.91767	226
3.92133	208
3.92500	193
3.92867	199
3.93233	206
3.93600	215
3.93967	221
3.94333	221
3.94700	217
3.95067	213
3.95433	210
3.95800	198
3.96167	192
3.96533	195
3.96900	193
3.97267	205
3.97633	216
3.98000	222
3.98367	222
3.98733	218
3.99100	215
3.99467	218
3.99833	222

[Chromatogram (Ch2)]
Interval(msec)	220
# of Points	1091
Start Time(min)	0.002
End Time(min)	3.998
R.Time (min)	Intensity
0.00167	-1
0.00533	-1
0.00900	-1
0.01267	-2
0.01633	-2
0.02000	-2
0.02367	-3
0.02733	-3
0.03100	-3
0.03467	-3
0.03833	-3
0.04200	-3
0.04567	-3
0.04933	-2
0.05300	-2
0.05667	-2
0.06033	-2
0.06400	-2
0.06767	-2
0.07133	-2
0.07500	-2
0.07867	-2
0.08233	-2
0.08600	-2
0.08967	-2
0.09333	-2
0.09700	-2
0.10067	-2
0.10433	-1
0.10800	-1
0.11167	-1
0.11533	-1
0.11900	-1
0.12267	-1
0.12633	-1
0.13000	-1
0.13367	-1
0.13733	-1
0.14100	-1
0.14467	-1
0.14833	-1
0.15200	-1
0.15567	-1
0.15933	-1
0.16300	-1
0.16667	-1
0.17033	-1
0.17400	-1
0.17767	-2
0.18133	-2
0.18500	-2
0.18867	-2
0.19233	-2
0.19600	-3
0.19967	-3
0.20333	-3
0.20700	-4
0.21067	-4
0.21433	-4
0.21800	-4
0.22167	-4
0.22533	-4
0.22900	-3
0.23267	-3
0.23633	-3
0.24000	-3
0.24367	-3
0.24733	-3
0.25100	-3
0.25467	-3
0.25833	-3
0.26200	-4
0.26567	-4
0.26933	-3
0.27300	-3
0.27667	-3
0.28033	-3
0.28400	-3
0.28767	-3
0.29133	-3
0.29500	-3
0.29867	-2
0.30233	-2
0.30600	-2
0.30967	-2
0.31333	-2
0.31700	-2
0.32067	-2
0.32433	-2
0.32800	-2
0.33167	-2
0.33533	-2
0.33900	-2
0.34267	-2
0.34633	-2
0.35000	-3
0.35367	-3
0.35733	-3
0.36100	-3
0.36467	-4
0.36833	-4
0.37200	-4
0.37567	-4
0.37933	-4
0.38300	-4
0.38667	-4
0.39033	-4
0.39400	-4
0.39767	-4
0.40133	-4
0.40500	-4
0.40867	-4
0.41233	-4
0.41600	-4
0.41967	-4
0.42333	-3
0.42700	-3
0.43067	-3
0.43433	-3
0.43800	-3
0.44167	-2
0.44533	-2
0.44900	-2
0.45267	-2
0.45633	-2
0.46000	-2
0.46367	-2
0.46733	-2
0.47100	-2
0.47467	-2
0.47833	-2
0.48200	-1
0.48567	-1
0.48933	-1
0.49300	-1
0.49667	-1
0.50033	-1
0.50400	-1
0.50767	-1
0.51133	-1
0.51500	-1
0.51867	-2
0.52233	-2
0.52600	-2
0.52967	-2
0.53333	-2
0.53700	-2
0.54067	-2
0.54433	-3
0.54800	-3
0.55167	-3
0.55533	-3
0.55900	-3
0.56267	-3
0.56633	-3
0.57000	-3
0.57367	-3
0.57733	-3
0.58100	-3
0.58467	-3
0.58833	-2
0.59200	-2
0.59567	-2
0.59933	-2
0.60300	-2
0.60667	-2
0.61033	-2
0.61400	-2
0.61767	-2
0.62133	-2
0.62500	-2
0.62867	-2
0.63233	-2
0.63600	-3
0.63967	-3
0.64333	-3
0.64700	-3
0.65067	-3
0.65433	-3
0.65800	-3
0.66167	-3
0.66533	-3
0.66900	-3
0.67267	-3
0.67633	-3
0.68000	-4
0.68367	-4
0.68733	-4
0.69100	-4
0.69467	-4
0.69833	-4
0.70200	-4
0.70567	-4
0.70933	-4
0.71300	-4
0.71667	-4
0.72033	-4
0.72400	-4
0.72767	-3
0.73133	-3
0.73500	-3
0.73867	-3
0.74233	-3
0.74600	-3
0.74967	-3
0.75333	-3
0.75700	-3
0.76067	-3
0.76433	-3
0.76800	-3
0.77167	-3
0.77533	-3
0.77900	-4
0.78267	-4
0.78633	-4
0.79000	-4
0.79367	-4
0.79733	-4
0.80100	-4
0.80467	-4
0.80833	-4
0.81200	-4
0.81567	-4
0.81933	-4
0.82300	-4
0.82667	-4
0.83033	-4
0.83400	-4
0.83767	-4
0.84133	-4
0.84500	-4
0.84867	-4
0.85233	-4
0.85600	-4
0.85967	-4
0.86333	-4
0.86700	-4
0.87067	-4
0.87433	-4
0.87800	-4
0.88167	-4
0.88533	-4
0.88900	-4
0.89267	-4
0.89633	-4
0.90000	-4
0.90367	-4
0.90733	-4
0.91100	-5
0.91467	-5
0.91833	-5
0.92200	-5
0.92567	-5
0.92933	-5
0.93300	-6
0.93667	-6
0.94033	-5
0.94400	-5
0.94767	-5
0.95133	-5
0.95500	-5
0.95867	-4
0.96233	-4
0.96600	-3
0.96967	-3
0.97333	-3
0.97700	-3
0.98067	-3
0.98433	-3
0.98800	-3
0.99167	-3
0.99533	-3
0.99900	-3
1.00267	-4
1.00633	-4
1.01000	-4
1.01367	-4
1.01733	-4
1.02100	-4
1.02467	-4
1.02833	-4
1.03200	-4
1.03567	-5
1.03933	-5
1.04300	-5
1.04667	-5
1.05033	-5
1.05400	-5
1.05767	-5
1.06133	-5
1.06500	-5
1.06867	-5
1.07233	-5
1.07600	-4
1.07967	-4
1.08333	-4
1.08700	-4
1.09067	-4
1.09433	-4
1.09800	-4
1.10167	-4
1.10533	-4
1.10900	-3
1.11267	-3
1.11633	-4
1.12000	-4
1.12367	-4
1.12733	-4
1.13100	-4
1.13467	-4
1.13833	-4
1.14200	-4
1.14567	-4
1.14933	-4
1.15300	-4
1.15667	-4
1.16033	-4
1.16400	-3
1.16767	-3
1.17133	-3
1.17500	-3
1.17867	-3
1.18233	-3
1.18600	-3
1.18967	-2
1.19333	-2
1.19700	-2
1.20067	-2
1.20433	-2
1.20800	-3
1.21167	-3
1.21533	-4
1.21900	-4
1.22267	-4
1.22633	-5
1.23000	-5
1.23367	-5
1.23733	-6
1.24100	-6
1.24467	-6
1.24833	-6
1.25200	-6
1.25567	-6
1.25933	-6
1.26300	-6
1.26667	-6
1.27033	-6
1.27400	-6
1.27767	-6
1.28133	-6
1.28500	-6
1.28867	-5
1.29233	-5
1.29600	-5
1.29967	-5
1.30333	-5
1.30700	-5
1.31067	-5
1.31433	-5
1.31800	-5
1.32167	-4
1.32533	-4
1.32900	-4
1.33267	-4
1.33633	-4
1.34000	-4
1.34367	-3
1.34733	-3
1.35100	-3
1.35467	-3
1.35833	-3
1.36200	-3
1.36567	-2
1.36933	-2
1.37300	-2
1.37667	-2
1.38033	-2
1.38400	-3
1.38767	-3
1.39133	-3
1.39500	-3
1.39867	-3
1.40233	-3
1.40600	-3
1.40967	-3
1.41333	-2
1.41700	-2
1.42067	-2
1.42433	-2
1.42800	-3
1.43167	-3
1.43533	-3
1.43900	-3
1.44267	-4
1.44633	-4
1.45000	-4
1.45367	-4
1.45733	-4
1.46100	-4
1.46467	-4
1.46833	-4
1.47200	-4
1.47567	-4
1.47933	-4
1.48300	-4
1.48667	-4
1.49033	-4
1.49400	-4
1.49767	-5
1.50133	-5
1.50500	-5
1.50867	-5
1.51233	-5
1.51600	-6
1.51967	-6
1.52333	-6
1.52700	-6
1.53067	-6
1.53433	-6
1.53800	-6
1.54167	-6
1.54533	-6
1.54900	-6
1.55267	-6
1.55633	-6
1.56000	-7
1.56367	-7
1.56733	-7
1.57100	-7
1.57467	-7
1.57833	-7
1.58200	-7
1.58567	-6
1.58933	-6
1.59300	-6
1.59667	-6
1.60033	-7
1.60400	-8
1.60767	-10
1.61133	-11
1.61500	-13
1.61867	-15
1.62233	-18
1.62600	-21
1.62967	-24
1.63333	-27
1.63700	-30
1.64067	-34
1.64433	-37
1.64800	-40
1.65167	-44
1.65533	-47
1.65900	-51
1.66267	-54
1.66633	-58
1.67000	-63
1.67367	-67
1.67733	-72
1.68100	-78
1.68467	-83
1.68833	-88
1.69200	-92
1.69567	-95
1.69933	-98
1.70300	-101
1.70667	-103
1.71033	-104
1.71400	-106
1.71767	-107
1.72133	-107
1.72500	-107
1.72867	-107
1.73233	-108
1.73600	-108
1.73967	-109
1.74333	-110
1.74700	-111
1.75067	-113
1.75433	-114
1.75800	-115
1.76167	-116
1.76533	-116
1.76900	-116
1.77267	-116
1.77633	-116
1.78000	-116
1.78367	-116
1.78733	-115
1.79100	-114
1.79467	-114
1.79833	-113
1.80200	-112
1.80567	-112
1.80933	-111
1.81300	-112
1.81667	-112
1.82033	-113
1.82400	-114
1.82767	-115
1.83133	-115
1.83500	-116
1.83867	-116
1.84233	-116
1.84600	-116
1.84967	-116
1.85333	-116
1.85700	-116
1.86067	-115
1.86433	-114
1.86800	-114
1.87167	-113
1.87533	-113
1.87900	-113
1.88267	-114
1.88633	-115
1.89000	-115
1.89367	-115
1.89733	-115
1.90100	-115
1.90467	-116
1.90833	-116
1.91200	-116
1.91567	-115
1.91933	-115
1.92300	-115
1.92667	-115
1.93033	-115
1.93400	-115
1.93767	-114
1.94133	-114
1.94500	-114
1.94867	-113
1.95233	-112
1.95600	-112
1.95967	-111
1.96333	-111
1.96700	-112
1.97067	-112
1.97433	-111
1.97800	-111
1.98167	-111
1.98533	-110
1.98900	-110
1.99267	-109
1.99633	-109
2.00000	-108
2.00367	-108
2.00733	-108
2.01100	-108
2.01467	-108
2.01833	-108
2.02200	-108
2.02567	-108
2.02933	-108
2.03300	-108
2.03667	-108
2.04033	-108
2.04400	-107
2.04767	-106
2.05133	-106
2.05500	-106
2.05867	-106
2.06233	-105
2.06600	-105
2.06967	-104
2.07333	-103
2.07700	-103
2.08067	-102
2.08433	-102
2.08800	-102
2.09167	-102
2.09533	-102
2.09900	-102
2.10267	-102
2.10633	-102
2.11000	-102
2.11367	-101
2.11733	-100
2.12100	-99
2.12467	-98
2.12833	-97
2.13200	-96
2.13567	-96
2.13933	-95
2.14300	-95
2.14667	-95
2.15033	-96
2.15400	-96
2.15767	-96
2.16133	-96
2.16500	-96
2.16867	-96
2.17233	-96
2.17600	-96
2.17967	-95
2.18333	-95
2.18700	-94
2.19067	-94
2.19433	-93
2.19800	-93
2.20167	-93
2.20533	-93
2.20900	-93
2.21267	-92
2.21633	-92
2.22000	-92
2.22367	-91
2.22733	-91
2.23100	-90
2.23467	-89
2.23833	-88
2.24200	-88
2.24567	-87
2.24933	-87
2.25300	-86
2.25667	-86
2.26033	-86
2.26400	-87
2.26767	-87
2.27133	-87
2.27500	-87
2.27867	-87
2.28233	-86
2.28600	-85
2.28967	-85
2.29333	-84
2.29700	-84
2.30067	-84
2.30433	-84
2.30800	-84
2.31167	-84
2.31533	-84
2.31900	-85
2.32267	-85
2.32633	-84
2.33000	-84
2.33367	-83
2.33733	-82
2.34100	-81
2.34467	-81
2.34833	-80
2.35200	-79
2.35567	-78
2.35933	-78
2.36300	-77
2.36667	-77
2.37033	-75
2.37400	-74
2.37767	-71
2.38133	-69
2.38500	-65
2.38867	-61
2.39233	-57
2.39600	-52
2.39967	-47
2.40333	-42
2.40700	-37
2.41067	-33
2.41433	-28
2.41800	-24
2.42167	-21
2.42533	-18
2.42900	-15
2.43267	-13
2.43633	-11
2.44000	-9
2.44367	-8
2.44733	-8
2.45100	-7
2.45467	-6
2.45833	-6
2.46200	-5
2.46567	-4
2.46933	-4
2.47300	-3
2.47667	-2
2.48033	-1
2.48400	-0
2.48767	1
2.49133	2
2.49500	3
2.49867	4
2.50233	5
2.50600	6
2.50967	7
2.51333	8
2.51700	8
2.52067	8
2.52433	9
2.52800	9
2.53167	9
2.53533	10
2.53900	11
2.54267	11
2.54633	12
2.55000	13
2.55367	14
2.55733	14
2.56100	14
2.56467	15
2.56833	15
2.57200	15
2.57567	16
2.57933	16
2.58300	16
2.58667	17
2.59033	17
2.59400	18
2.59767	18
2.60133	18
2.60500	19
2.60867	19
2.61233	19
2.61600	20
2.61967	20
2.62333	20
2.62700	20
2.63067	20
2.63433	20
2.63800	20
2.64167	19
2.64533	19
2.64900	19
2.65267	19
2.65633	19
2.66000	19
2.66367	19
2.66733	19
2.67100	20
2.67467	20
2.67833	21
2.68200	21
2.68567	22
2.68933	22
2.69300	22
2.69667	23
2.70033	23
2.70400	23
2.70767	23
2.71133	22
2.71500	22
2.71867	22
2.72233	22
2.72600	22
2.72967	21
2.73333	21
2.73700	21
2.74067	21
2.74433	21
2.74800	22
2.75167	22
2.75533	22
2.75900	23
2.76267	23
2.76633	23
2.77000	24
2.77367	24
2.77733	25
2.78100	25
2.78467	25
2.78833	25
2.79200	25
2.79567	25
2.79933	25
2.80300	25
2.80667	24
2.81033	24
2.81400	23
2.81767	23
2.82133	22
2.82500	22
2.82867	22
2.83233	22
2.83600	21
2.83967	21
2.84333	20
2.84700	18
2.85067	13
2.85433	7
2.85800	-3
2.86167	-17
2.86533	-36
2.86900	-60
2.87267	-90
2.87633	-125
2.88000	-165
2.88367	-212
2.88733	-264
2.89100	-321
2.89467	-382
2.89833	-448
2.90200	-519
2.90567	-593
2.90933	-670
2.91300	-750
2.91667	-833
2.92033	-918
2.92400	-1006
2.92767	-1096
2.93133	-1187
2.93500	-1281
2.93867	-1374
2.94233	-1460
2.94600	-1524
2.94967	-1556
2.95333	-1551
2.95700	-1511
2.96067	-1441
2.96433	-1350
2.96800	-1245
2.97167	-1133
2.97533	-1020
2.97900	-910
2.98267	-805
2.98633	-708
2.99000	-619
2.99367	-539
2.99733	-467
3.00100	-403
3.00467	-347
3.00833	-297
3.01200	-255
3.01567	-218
3.01933	-186
3.02300	-158
3.02667	-135
3.03033	-114
3.03400	-97
3.03767	-82
3.04133	-69
3.04500	-58
3.04867	-49
3.05233	-41
3.05600	-34
3.05967	-29
3.06333	-24
3.06700	-20
3.07067	-16
3.07433	-13
3.07800	-10
3.08167	-8
3.08533	-5
3.08900	-4
3.09267	-2
3.09633	-1
3.10000	1
3.10367	2
3.10733	3
3.11100	4
3.11467	5
3.11833	6
3.12200	6
3.12567	7
3.12933	7
3.13300	8
3.13667	8
3.14033	9
3.14400	10
3.14767	10
3.15133	11
3.15500	11
3.15867	12
3.16233	12
3.16600	13
3.16967	14
3.17333	14
3.17700	14
3.18067	15
3.18433	15
3.18800	15
3.19167	15
3.19533	15
3.19900	15
3.20267	16
3.20633	16
3.21000	16
3.21367	16
3.21733	17
3.22100	17
3.22467	17
3.22833	17
3.23200	18
3.23567	18
3.23933	18
3.24300	19
3.24667	19
3.25033	19
3.25400	20
3.25767	20
3.26133	20
3.26500	20
3.26867	20
3.27233	19
3.27600	19
3.27967	19
3.28333	19
3.28700	19
3.29067	19
3.29433	19
3.29800	19
3.30167	19
3.30533	19
3.30900	19
3.31267	19
3.31633	19
3.32000	19
3.32367	19
3.32733	20
3.33100	20
3.33467	20
3.33833	20
3.34200	21
3.34567	21
3.34933	21
3.35300	22
3.35667	22
3.36033	23
3.36400	24
3.36767	24
3.37133	24
3.37500	24
3.37867	25
3.38233	25
3.38600	25
3.38967	25
3.39333	25
3.39700	26
3.40067	26
3.40433	25
3.40800	25
3.41167	25
3.41533	25
3.41900	25
3.42267	25
3.42633	25
3.43000	25
3.43367	25
3.43733	25
3.44100	25
3.44467	25
3.44833	25
3.45200	25
3.45567	25
3.45933	25
3.46300	26
3.46667	26
3.47033	26
3.47400	26
3.47767	26
3.48133	25
3.48500	25
3.48867	25
3.49233	25
3.49600	24
3.49967	24
3.50333	24
3.50700	24
3.51067	24
3.51433	24
3.51800	25
3.52167	25
3.52533	25
3.52900	25
3.53267	25
3.53633	24
3.54000	24
3.54367	24
3.54733	24
3.55100	23
3.55467	23
3.55833	23
3.56200	23
3.56567	23
3.56933	23
3.57300	23
3.57667	23
3.58033	23
3.58400	24
3.58767	24
3.59133	24
3.59500	24
3.59867	25
3.60233	25
3.60600	25
3.60967	25
3.61333	25
3.61700	25
3.62067	25
3.62433	25
3.62800	25
3.63167	25
3.63533	25
3.63900	25
3.64267	25
3.64633	25
3.65000	25
3.65367	25
3.65733	25
3.66100	25
3.66467	24
3.66833	24
3.67200	24
3.67567	24
3.67933	24
3.68300	24
3.68667	24
3.69033	24
3.69400	24
3.69767	24
3.70133	24
3.70500	24
3.70867	24
3.71233	24
3.71600	24
3.71967	24
3.72333	24
3.72700	24
3.73067	24
3.73433	23
3.73800	23
3.74167	23
3.74533	23
3.74900	22
3.75267	22
3.75633	22
3.76000	22
3.76367	22
3.76733	22
3.77100	21
3.77467	21
3.77833	21
3.78200	22
3.78567	22
3.78933	22
3.79300	22
3.79667	22
3.80033	22
3.80400	22
3.80767	22
3.81133	22
3.81500	22
3.81867	22
3.82233	22
3.82600	22
3.82967	22
3.83333	22
3.83700	22
3.84067	22
3.84433	22
3.84800	22
3.85167	22
3.85533	22
3.85900	22
3.86267	22
3.86633	22
3.87000	23
3.87367	23
3.87733	23
3.88100	24
3.88467	24
3.88833	24
3.89200	24
3.89567	24
3.89933	24
3.90300	24
3.90667	24
3.91033	24
3.91400	24
3.91767	24
3.92133	24
3.92500	24
3.92867	25
3.93233	24
3.93600	24
3.93967	24
3.94333	24
3.94700	24
3.95067	24
3.95433	24
3.95800	24
3.96167	23
3.96533	23
3.96900	23
3.97267	23
3.97633	23
3.98000	23
3.98367	23
3.98733	23
3.99100	23
3.99467	23
3.99833	23

[Chromatogram (Ch3)]
Interval(msec)	220
# of Points	1091
Start Time(min)	0.002
End Time(min)	3.998
R.Time (min)	Intensity
0.00167	1
0.00533	2
0.00900	2
0.01267	2
0.01633	2
0.02000	1
0.02367	2
0.02733	2
0.03100	4
0.03467	4
0.03833	3
0.04200	4
0.04567	3
0.04933	1
0.05300	1
0.05667	3
0.06033	3
0.06400	4
0.06767	5
0.07133	4
0.07500	3
0.07867	3
0.08233	4
0.08600	5
0.08967	7
0.09333	8
0.09700	7
0.10067	6
0.10433	2
0.10800	1
0.11167	1
0.11533	2
0.11900	2
0.12267	3
0.12633	2
0.13000	0
0.13367	-1
0.13733	-3
0.14100	-3
0.14467	-3
0.14833	-2
0.15200	-1
0.15567	1
0.15933	2
0.16300	2
0.16667	3
0.17033	2
0.17400	2
0.17767	2
0.18133	0
0.18500	-2
0.18867	-3
0.19233	-5
0.19600	-8
0.19967	-5
0.20333	-2
0.20700	-1
0.21067	1
0.21433	1
0.21800	-0
0.22167	-2
0.22533	-3
0.22900	-1
0.23267	-0
0.23633	0
0.24000	-1
0.24367	-1
0.24733	-1
0.25100	1
0.25467	0
0.25833	0
0.26200	1
0.26567	0
0.26933	-0
0.27300	-1
0.27667	-3
0.28033	-3
0.28400	-1
0.28767	-1
0.29133	-1
0.29500	-2
0.29867	-1
0.30233	-1
0.30600	-1
0.30967	-0
0.31333	1
0.31700	3
0.32067	5
0.32433	6
0.32800	7
0.33167	8
0.33533	9
0.33900	8
0.34267	6
0.34633	4
0.35000	3
0.35367	3
0.35733	1
0.36100	0
0.36467	1
0.36833	2
0.37200	3
0.37567	3
0.37933	4
0.38300	4
0.38667	5
0.39033	6
0.39400	6
0.39767	7
0.40133	10
0.40500	12
0.40867	14
0.41233	13
0.41600	12
0.41967	13
0.42333	11
0.42700	10
0.43067	10
0.43433	8
0.43800	7
0.44167	8
0.44533	9
0.44900	10
0.45267	10
0.45633	9
0.46000	8
0.46367	8
0.46733	8
0.47100	7
0.47467	5
0.47833	3
0.48200	3
0.48567	5
0.48933	6
0.49300	6
0.49667	7
0.50033	7
0.50400	7
0.50767	7
0.51133	7
0.51500	5
0.51867	4
0.52233	1
0.52600	-1
0.52967	-2
0.53333	-3
0.53700	-4
0.54067	-3
0.54433	-1
0.54800	1
0.55167	1
0.55533	2
0.55900	2
0.56267	1
0.56633	-1
0.57000	-1
0.57367	-1
0.57733	-0
0.58100	-1
0.58467	-1
0.58833	-0
0.59200	-0
0.59567	1
0.59933	2
0.60300	2
0.60667	2
0.61033	2
0.61400	4
0.61767	6
0.62133	6
0.62500	5
0.62867	2
0.63233	-1
0.63600	-2
0.63967	-3
0.64333	-4
0.64700	-4
0.65067	-3
0.65433	-2
0.65800	-2
0.66167	-2
0.66533	-1
0.66900	-1
0.67267	-1
0.67633	-1
0.68000	1
0.68367	2
0.68733	4
0.69100	4
0.69467	3
0.69833	5
0.70200	4
0.70567	2
0.70933	1
0.71300	1
0.71667	1
0.72033	1
0.72400	0
0.72767	-0
0.73133	0
0.73500	1
0.73867	1
0.74233	2
0.74600	3
0.74967	5
0.75333	4
0.75700	3
0.76067	2
0.76433	2
0.76800	3
0.77167	4
0.77533	4
0.77900	4
0.78267	5
0.78633	6
0.79000	5
0.79367	4
0.79733	4
0.80100	4
0.80467	4
0.80833	3
0.81200	2
0.81567	1
0.81933	-0
0.82300	0
0.82667	-0
0.83033	-0
0.83400	-1
0.83767	0
0.84133	4
0.84500	3
0.84867	2
0.85233	2
0.85600	3
0.85967	1
0.86333	1
0.86700	1
0.87067	0
0.87433	0
0.87800	1
0.88167	1
0.88533	-0
0.88900	-1
0.89267	-2
0.89633	-1
0.90000	0
0.90367	2
0.90733	4
0.91100	5
0.91467	5
0.91833	3
0.92200	2
0.92567	2
0.92933	3
0.93300	3
0.93667	4
0.94033	5
0.94400	7
0.94767	9
0.95133	9
0.95500	9
0.95867	9
0.96233	10
0.96600	11
0.96967	11
0.97333	11
0.97700	12
0.98067	11
0.98433	11
0.98800	10
0.99167	10
0.99533	10
0.99900	11
1.00267	9
1.00633	9
1.01000	10
1.01367	10
1.01733	8
1.02100	7
1.02467	8
1.02833	13
1.03200	15
1.03567	12
1.03933	9
1.04300	8
1.04667	6
1.05033	3
1.05400	2
1.05767	5
1.06133	5
1.06500	5
1.06867	6
1.07233	7
1.07600	8
1.07967	8
1.08333	7
1.08700	8
1.09067	9
1.09433	8
1.09800	6
1.10167	4
1.10533	4
1.10900	1
1.11267	-1
1.11633	0
1.12000	4
1.12367	7
1.12733	6
1.13100	3
1.13467	4
1.13833	6
1.14200	9
1.14567	10
1.14933	8
1.15300	7
1.15667	7
1.16033	8
1.16400	8
1.16767	7
1.17133	8
1.17500	7
1.17867	8
1.18233	9
1.18600	9
1.18967	7
1.19333	8
1.19700	8
1.20067	6
1.20433	7
1.20800	7
1.21167	7
1.21533	5
1.21900	3
1.22267	5
1.22633	7
1.23000	9
1.23367	11
1.23733	13
1.24100	13
1.24467	13
1.24833	12
1.25200	10
1.25567	6
1.25933	6
1.26300	8
1.26667	10
1.27033	10
1.27400	8
1.27767	7
1.28133	5
1.28500	4
1.28867	5
1.29233	5
1.29600	6
1.29967	9
1.30333	8
1.30700	9
1.31067	9
1.31433	9
1.31800	9
1.32167	10
1.32533	10
1.32900	9
1.33267	7
1.33633	7
1.34000	8
1.34367	9
1.34733	9
1.35100	8
1.35467	8
1.35833	9
1.36200	9
1.36567	10
1.36933	9
1.37300	10
1.37667	10
1.38033	10
1.38400	10
1.38767	10
1.39133	9
1.39500	8
1.39867	8
1.40233	7
1.40600	9
1.40967	10
1.41333	10
1.41700	10
1.42067	9
1.42433	8
1.42800	9
1.43167	10
1.43533	12
1.43900	11
1.44267	10
1.44633	8
1.45000	6
1.45367	6
1.45733	7
1.46100	8
1.46467	9
1.46833	10
1.47200	11
1.47567	11
1.47933	13
1.48300	14
1.48667	15
1.49033	14
1.49400	13
1.49767	12
1.50133	12
1.50500	12
1.50867	14
1.51233	14
1.51600	13
1.51967	12
1.52333	11
1.52700	11
1.53067	13
1.53433	15
1.53800	17
1.54167	19
1.54533	18
1.54900	17
1.55267	16
1.55633	17
1.56000	18
1.56367	18
1.56733	16
1.57100	15
1.57467	13
1.57833	12
1.58200	12
1.58567	14
1.58933	15
1.59300	16
1.59667	18
1.60033	19
1.60400	19
1.60767	19
1.61133	22
1.61500	24
1.61867	24
1.62233	24
1.62600	25
1.62967	28
1.63333	29
1.63700	28
1.64067	27
1.64433	25
1.64800	24
1.65167	23
1.65533	24
1.65900	26
1.66267	25
1.66633	26
1.67000	29
1.67367	33
1.67733	36
1.68100	37
1.68467	37
1.68833	37
1.69200	35
1.69567	35
1.69933	35
1.70300	35
1.70667	35
1.71033	35
1.71400	36
1.71767	37
1.72133	38
1.72500	38
1.72867	36
1.73233	37
1.73600	38
1.73967	40
1.74333	41
1.74700	43
1.75067	44
1.75433	44
1.75800	45
1.76167	44
1.76533	44
1.76900	45
1.77267	46
1.77633	46
1.78000	46
1.78367	47
1.78733	48
1.79100	49
1.79467	49
1.79833	48
1.80200	46
1.80567	45
1.80933	46
1.81300	45
1.81667	46
1.82033	48
1.82400	51
1.82767	53
1.83133	54
1.83500	55
1.83867	55
1.84233	54
1.84600	55
1.84967	57
1.85333	56
1.85700	56
1.86067	57
1.86433	57
1.86800	57
1.87167	57
1.87533	58
1.87900	60
1.88267	61
1.88633	63
1.89000	64
1.89367	66
1.89733	67
1.90100	68
1.90467	67
1.90833	65
1.91200	65
1.91567	65
1.91933	68
1.92300	72
1.92667	74
1.93033	77
1.93400	78
1.93767	79
1.94133	78
1.94500	78
1.94867	78
1.95233	79
1.95600	81
1.95967	84
1.96333	86
1.96700	86
1.97067	87
1.97433	89
1.97800	92
1.98167	94
1.98533	95
1.98900	95
1.99267	96
1.99633	95
2.00000	94
2.00367	93
2.00733	93
2.01100	95
2.01467	98
2.01833	100
2.02200	102
2.02567	103
2.02933	104
2.03300	105
2.03667	107
2.04033	108
2.04400	112
2.04767	115
2.05133	116
2.05500	116
2.05867	115
2.06233	116
2.06600	118
2.06967	119
2.07333	119
2.07700	120
2.08067	121
2.08433	121
2.08800	122
2.09167	123
2.09533	124
2.09900	127
2.10267	131
2.10633	133
2.11000	135
2.11367	135
2.11733	135
2.12100	134
2.12467	134
2.12833	136
2.13200	140
2.13567	143
2.13933	147
2.14300	149
2.14667	151
2.15033	153
2.15400	153
2.15767	155
2.16133	157
2.16500	159
2.16867	161
2.17233	162
2.17600	163
2.17967	163
2.18333	163
2.18700	165
2.19067	169
2.19433	171
2.19800	172
2.20167	172
2.20533	172
2.20900	173
2.21267	174
2.21633	176
2.22000	177
2.22367	179
2.22733	181
2.23100	183
2.23467	185
2.23833	187
2.24200	188
2.24567	189
2.24933	191
2.25300	192
2.25667	194
2.26033	196
2.26400	197
2.26767	198
2.27133	199
2.27500	199
2.27867	199
2.28233	199
2.28600	201
2.28967	205
2.29333	206
2.29700	207
2.30067	206
2.30433	206
2.30800	207
2.31167	208
2.31533	213
2.31900	217
2.32267	220
2.32633	222
2.33000	224
2.33367	224
2.33733	224
2.34100	226
2.34467	228
2.34833	229
2.35200	231
2.35567	232
2.35933	235
2.36300	238
2.36667	241
2.37033	241
2.37400	239
2.37767	236
2.38133	235
2.38500	236
2.38867	235
2.39233	234
2.39600	237
2.39967	240
2.40333	243
2.40700	246
2.41067	247
2.41433	248
2.41800	250
2.42167	252
2.42533	254
2.42900	256
2.43267	257
2.43633	256
2.44000	261
2.44367	321
2.44733	474
2.45100	638
2.45467	774
2.45833	848
2.46200	845
2.46567	796
2.46933	736
2.47300	685
2.47667	648
2.48033	620
2.48400	584
2.48767	537
2.49133	485
2.49500	436
2.49867	397
2.50233	368
2.50600	351
2.50967	346
2.51333	353
2.51700	370
2.52067	392
2.52433	412
2.52800	422
2.53167	419
2.53533	404
2.53900	377
2.54267	344
2.54633	311
2.55000	280
2.55367	254
2.55733	232
2.56100	214
2.56467	202
2.56833	192
2.57200	184
2.57567	182
2.57933	181
2.58300	181
2.58667	180
2.59033	180
2.59400	185
2.59767	191
2.60133	197
2.60500	203
2.60867	206
2.61233	206
2.61600	203
2.61967	196
2.62333	190
2.62700	183
2.63067	177
2.63433	169
2.63800	159
2.64167	147
2.64533	133
2.64900	120
2.65267	108
2.65633	97
2.66000	86
2.66367	77
2.66733	67
2.67100	57
2.67467	47
2.67833	39
2.68200	34
2.68567	29
2.68933	26
2.69300	26
2.69667	26
2.70033	27
2.70400	28
2.70767	29
2.71133	31
2.71500	36
2.71867	39
2.72233	41
2.72600	43
2.72967	46
2.73333	51
2.73700	57
2.74067	59
2.74433	61
2.74800	62
2.75167	65
2.75533	69
2.75900	72
2.76267	74
2.76633	76
2.77000	76
2.77367	78
2.77733	81
2.78100	86
2.78467	90
2.78833	95
2.79200	99
2.79567	104
2.79933	109
2.80300	113
2.80667	118
2.81033	124
2.81400	131
2.81767	141
2.82133	161
2.82500	210
2.82867	315
2.83233	522
2.83600	887
2.83967	1479
2.84333	2350
2.84700	3518
2.85067	4962
2.85433	6621
2.85800	8396
2.86167	10156
2.86533	11763
2.86900	13095
2.87267	14056
2.87633	14600
2.88000	14727
2.88367	14480
2.88733	13928
2.89100	13148
2.89467	12222
2.89833	11221
2.90200	10198
2.90567	9189
2.90933	8226
2.91300	7322
2.91667	6490
2.92033	5733
2.92400	5050
2.92767	4437
2.93133	3889
2.93500	3404
2.93867	2978
2.94233	2604
2.94600	2277
2.94967	1991
2.95333	1741
2.95700	1523
2.96067	1333
2.96433	1167
2.96800	1020
2.97167	891
2.97533	780
2.97900	686
2.98267	605
2.98633	535
2.99000	474
2.99367	423
2.99733	378
3.00100	339
3.00467	305
3.00833	276
3.01200	250
3.01567	230
3.01933	212
3.02300	193
3.02667	178
3.03033	167
3.03400	157
3.03767	148
3.04133	140
3.04500	135
3.04867	129
3.05233	125
3.05600	120
3.05967	116
3.06333	112
3.06700	109
3.07067	104
3.07433	100
3.07800	97
3.08167	84
3.08533	45
3.08900	1
3.09267	-24
3.09633	-20
3.10000	5
3.10367	44
3.10733	91
3.11100	145
3.11467	203
3.11833	261
3.12200	317
3.12567	369
3.12933	417
3.13300	459
3.13667	495
3.14033	525
3.14400	551
3.14767	573
3.15133	591
3.15500	608
3.15867	622
3.16233	631
3.16600	639
3.16967	649
3.17333	657
3.17700	665
3.18067	671
3.18433	676
3.18800	681
3.19167	685
3.19533	687
3.19900	691
3.20267	695
3.20633	699
3.21000	703
3.21367	707
3.21733	710
3.22100	713
3.22467	717
3.22833	725
3.23200	732
3.23567	738
3.23933	745
3.24300	750
3.24667	756
3.25033	760
3.25400	767
3.25767	774
3.26133	781
3.26500	785
3.26867	789
3.27233	795
3.27600	801
3.27967	806
3.28333	811
3.28700	817
3.29067	822
3.29433	825
3.29800	829
3.30167	833
3.30533	840
3.30900	847
3.31267	854
3.31633	859
3.32000	860
3.32367	862
3.32733	863
3.33100	865
3.33467	865
3.33833	863
3.34200	862
3.34567	859
3.34933	858
3.35300	856
3.35667	855
3.36033	851
3.36400	849
3.36767	846
3.37133	845
3.37500	843
3.37867	839
3.38233	833
3.38600	830
3.38967	827
3.39333	823
3.39700	818
3.40067	814
3.40433	810
3.40800	807
3.41167	803
3.41533	798
3.41900	792
3.42267	788
3.42633	788
3.43000	788
3.43367	786
3.43733	784
3.44100	779
3.44467	774
3.44833	772
3.45200	770
3.45567	768
3.45933	766
3.46300	766
3.46667	764
3.47033	762
3.47400	759
3.47767	756
3.48133	753
3.48500	751
3.48867	749
3.49233	748
3.49600	749
3.49967	748
3.50333	746
3.50700	746
3.51067	745
3.51433	745
3.51800	745
3.52167	745
3.52533	744
3.52900	742
3.53267	740
3.53633	737
3.54000	737
3.54367	737
3.54733	738
3.55100	738
3.55467	739
3.55833	740
3.56200	739
3.56567	738
3.56933	735
3.57300	734
3.57667	732
3.58033	730
3.58400	729
3.58767	730
3.59133	731
3.59500	732
3.59867	732
3.60233	733
3.60600	732
3.60967	730
3.61333	728
3.61700	727
3.62067	725
3.62433	721
3.62800	719
3.63167	719
3.63533	719
3.63900	718
3.64267	716
3.64633	715
3.65000	712
3.65367	709
3.65733	708
3.66100	707
3.66467	704
3.66833	699
3.67200	696
3.67567	693
3.67933	691
3.68300	686
3.68667	683
3.69033	680
3.69400	679
3.69767	679
3.70133	680
3.70500	679
3.70867	677
3.71233	676
3.71600	674
3.71967	672
3.72333	670
3.72700	667
3.73067	667
3.73433	664
3.73800	661
3.74167	658
3.74533	656
3.74900	656
3.75267	653
3.75633	650
3.76000	648
3.76367	647
3.76733	645
3.77100	645
3.77467	643
3.77833	641
3.78200	641
3.78567	640
3.78933	639
3.79300	635
3.79667	635
3.80033	632
3.80400	629
3.80767	627
3.81133	627
3.81500	626
3.81867	624
3.82233	620
3.82600	617
3.82967	618
3.83333	618
3.83700	617
3.84067	613
3.84433	610
3.84800	607
3.85167	606
3.85533	604
3.85900	601
3.86267	599
3.86633	596
3.87000	594
3.87367	593
3.87733	590
3.88100	588
3.88467	588
3.88833	586
3.89200	585
3.89567	582
3.89933	578
3.90300	576
3.90667	574
3.91033	574
3.91400	577
3.91767	578
3.92133	579
3.92500	576
3.92867	574
3.93233	572
3.93600	570
3.93967	569
3.94333	568
3.94700	568
3.95067	566
3.95433	564
3.95800	562
3.96167	562
3.96533	562
3.96900	563
3.97267	563
3.97633	562
3.98000	559
3.98367	557
3.98733	556
3.99100	555
3.99467	552
3.99833	547

[Status Trace (Column Oven Temperature)]
Interval(msec)	1000
# of Points	240
Start Time(min)	0.008
End Time(min)	3.991
Intensity Units	
Intensity Multiplier	1
R.Time (min)	Intensity
0.00753	35.02
0.02420	35.01
0.04087	35.02
0.05753	35.02
0.07420	35.02
0.09087	35.03
0.10753	35.02
0.12420	35.01
0.14087	35.01
0.15753	35.01
0.17420	35.02
0.19087	35.02
0.20753	35.02
0.22420	35.02
0.24087	35.02
0.25753	35.01
0.27420	35.02
0.29087	35.01
0.30753	35.01
0.32420	35.01
0.34087	35.02
0.35753	35.02
0.37420	35.03
0.39087	35.03
0.40753	35.03
0.42420	35.02
0.44087	35.01
0.45753	35.02
0.47420	35.01
0.49087	35.01
0.50753	35.01
0.52420	35.02
0.54087	35.01
0.55753	35.01
0.57420	35.00
0.59087	35.00
0.60753	35.00
0.62420	34.99
0.64087	34.99
0.65753	34.99
0.67420	34.99
0.69087	34.99
0.70753	34.99
0.72420	35.00
0.74087	34.99
0.75753	34.99
0.77420	35.00
0.79087	35.00
0.80753	34.99
0.82420	34.99
0.84087	34.99
0.85753	34.99
0.87420	34.99
0.89087	35.00
0.90753	35.00
0.92420	35.01
0.94087	35.00
0.95753	34.99
0.97420	34.99
0.99087	34.99
1.00753	35.00
1.02420	35.01
1.04087	35.01
1.05753	35.01
1.07420	35.00
1.09087	35.00
1.10753	35.00
1.12420	35.01
1.14087	35.00
1.15753	35.00
1.17420	35.00
1.19087	34.99
1.20753	35.00
1.22420	35.00
1.24087	35.01
1.25753	35.01
1.27420	35.01
1.29087	35.01
1.30753	35.02
1.32420	35.01
1.34087	35.01
1.35753	35.00
1.37420	34.99
1.39087	34.99
1.40753	35.00
1.42420	34.98
1.44087	34.98
1.45753	34.97
1.47420	34.97
1.49087	34.98
1.50753	34.98
1.52420	34.98
1.54087	34.99
1.55753	35.01
1.57420	35.01
1.59087	35.02
1.60753	35.08
1.62420	35.21
1.64087	35.39
1.65753	35.62
1.67420	35.96
1.69087	36.32
1.70753	36.68
1.72420	36.99
1.74087	37.34
1.75753	37.69
1.77420	38.01
1.79087	38.32
1.80753	38.64
1.82420	38.99
1.84087	39.32
1.85753	39.65
1.87420	39.96
1.89087	40.30
1.90753	40.63
1.92420	40.97
1.94087	41.29
1.95753	41.62
1.97420	41.95
1.99087	42.26
2.00753	42.59
2.02420	42.92
2.04087	43.25
2.05753	43.58
2.07420	43.90
2.09087	44.22
2.10753	44.57
2.12420	44.87
2.14087	45.21
2.15753	45.53
2.17420	45.86
2.19087	46.18
2.20753	46.52
2.22420	46.85
2.24087	47.17
2.25753	47.49
2.27420	47.83
2.29087	48.14
2.30753	48.50
2.32420	48.84
2.34087	49.13
2.35753	49.45
2.37420	49.71
2.39087	49.79
2.40753	49.79
2.42420	49.79
2.44087	49.79
2.45753	49.78
2.47420	49.79
2.49087	49.79
2.50753	49.79
2.52420	49.82
2.54087	49.80
2.55753	49.82
2.57420	49.82
2.59087	49.81
2.60753	49.81
2.62420	49.82
2.64087	49.81
2.65753	49.83
2.67420	49.84
2.69087	49.83
2.70753	49.84
2.72420	49.86
2.74087	49.87
2.75753	49.87
2.77420	49.85
2.79087	49.85
2.80753	49.87
2.82420	49.88
2.84087	49.89
2.85753	49.89
2.87420	49.90
2.89087	49.90
2.90753	49.91
2.92420	49.92
2.94087	49.93
2.95753	49.94
2.97420	49.95
2.99087	49.96
3.00753	49.96
3.02420	49.98
3.04087	49.99
3.05753	50.01
3.07420	50.02
3.09087	50.03
3.10753	50.04
3.12420	50.05
3.14087	50.06
3.15753	50.06
3.17420	50.06
3.19087	50.07
3.20753	50.08
3.22420	50.08
3.24087	50.08
3.25753	50.08
3.27420	50.09
3.29087	50.10
3.30753	50.11
3.32420	50.12
3.34087	50.11
3.35753	50.10
3.37420	50.08
3.39087	50.06
3.40753	50.06
3.42420	50.04
3.44087	50.04
3.45753	50.03
3.47420	50.02
3.49087	50.03
3.50753	50.02
3.52420	50.02
3.54087	50.03
3.55753	50.04
3.57420	50.04
3.59087	50.03
3.60753	50.02
3.62420	50.02
3.64087	50.02
3.65753	50.01
3.67420	50.01
3.69087	50.01
3.70753	50.03
3.72420	50.03
3.74087	50.04
3.75753	50.05
3.77420	50.06
3.79087	50.07
3.80753	50.07
3.82420	50.08
3.84087	50.07
3.85753	50.07
3.87420	50.07
3.89087	50.06
3.90753	50.06
3.92420	50.06
3.94087	50.06
3.95753	50.07
3.97420	50.07
3.99087	50.07

[Status Trace (Injection Unit Temperature)]
Interval(msec)	1000
# of Points	240
Start Time(min)	0.008
End Time(min)	3.991
Intensity Units	
Intensity Multiplier	1
R.Time (min)	Intensity
0.00753	99.98
0.02420	99.98
0.04087	99.98
0.05753	99.98
0.07420	99.98
0.09087	99.98
0.10753	99.98
0.12420	99.98
0.14087	99.98
0.15753	99.98
0.17420	99.99
0.19087	99.99
0.20753	99.99
0.22420	99.99
0.24087	99.98
0.25753	99.99
0.27420	99.98
0.29087	99.99
0.30753	99.98
0.32420	99.98
0.34087	99.98
0.35753	99.98
0.37420	99.98
0.39087	99.98
0.40753	99.98
0.42420	99.98
0.44087	99.98
0.45753	99.98
0.47420	99.98
0.49087	99.98
0.50753	99.98
0.52420	99.98
0.54087	99.98
0.55753	99.98
0.57420	99.98
0.59087	99.98
0.60753	99.98
0.62420	99.98
0.64087	99.98
0.65753	99.98
0.67420	99.98
0.69087	99.98
0.70753	99.98
0.72420	99.98
0.74087	99.98
0.75753	99.98
0.77420	99.98
0.79087	99.98
0.80753	99.98
0.82420	99.98
0.84087	99.98
0.85753	99.98
0.87420	99.98
0.89087	99.98
0.90753	99.98
0.92420	99.98
0.94087	99.98
0.95753	99.98
0.97420	99.98
0.99087	99.98
1.00753	99.98
1.02420	99.98
1.04087	99.98
1.05753	99.97
1.07420	99.98
1.09087	99.98
1.10753	99.98
1.12420	99.98
1.14087	99.98
1.15753	99.98
1.17420	99.98
1.19087	99.98
1.20753	99.98
1.22420	99.98
1.24087	99.98
1.25753	99.98
1.27420	99.98
1.29087	99.98
1.30753	99.98
1.32420	99.99
1.34087	99.99
1.35753	99.98
1.37420	99.98
1.39087	99.98
1.40753	99.98
1.42420	99.99
1.44087	99.99
1.45753	99.99
1.47420	99.98
1.49087	99.99
1.50753	99.99
1.52420	99.99
1.54087	99.99
1.55753	99.99
1.57420	99.99
1.59087	99.98
1.60753	99.99
1.62420	99.99
1.64087	99.99
1.65753	99.99
1.67420	99.99
1.69087	99.99
1.70753	99.99
1.72420	99.99
1.74087	99.98
1.75753	99.99
1.77420	99.99
1.79087	99.99
1.80753	99.99
1.82420	99.99
1.84087	99.99
1.85753	99.99
1.87420	99.99
1.89087	99.98
1.90753	99.98
1.92420	99.98
1.94087	99.98
1.95753	99.98
1.97420	99.98
1.99087	99.98
2.00753	99.98
2.02420	99.98
2.04087	99.98
2.05753	99.98
2.07420	99.98
2.09087	99.98
2.10753	99.98
2.12420	99.98
2.14087	99.98
2.15753	99.98
2.17420	99.98
2.19087	99.97
2.20753	99.98
2.22420	99.97
2.24087	99.97
2.25753	99.97
2.27420	99.97
2.29087	99.97
2.30753	99.97
2.32420	99.96
2.34087	99.97
2.35753	99.97
2.37420	99.97
2.39087	99.98
2.40753	99.97
2.42420	99.97
2.44087	99.97
2.45753	99.97
2.47420	99.97
2.49087	99.97
2.50753	99.97
2.52420	99.97
2.54087	99.97
2.55753	99.97
2.57420	99.97
2.59087	99.97
2.60753	99.98
2.62420	99.98
2.64087	99.97
2.65753	99.97
2.67420	99.98
2.69087	99.98
2.70753	99.98
2.72420	99.98
2.74087	99.98
2.75753	99.99
2.77420	99.99
2.79087	99.98
2.80753	99.99
2.82420	99.99
2.84087	99.99
2.85753	99.99
2.87420	99.99
2.89087	100.00
2.90753	100.00
2.92420	100.00
2.94087	100.00
2.95753	100.00
2.97420	100.00
2.99087	100.01
3.00753	100.01
3.02420	100.00
3.04087	100.01
3.05753	100.01
3.07420	100.01
3.09087	100.01
3.10753	100.01
3.12420	100.02
3.14087	100.02
3.15753	100.02
3.17420	100.02
3.19087	100.02
3.20753	100.02
3.22420	100.02
3.24087	100.02
3.25753	100.02
3.27420	100.02
3.29087	100.02
3.30753	100.02
3.32420	100.02
3.34087	100.02
3.35753	100.02
3.37420	100.02
3.39087	100.03
3.40753	100.03
3.42420	100.02
3.44087	100.03
3.45753	100.03
3.47420	100.03
3.49087	100.03
3.50753	100.03
3.52420	100.03
3.54087	100.03
3.55753	100.03
3.57420	100.03
3.59087	100.03
3.60753	100.03
3.62420	100.03
3.64087	100.03
3.65753	100.03
3.67420	100.03
3.69087	100.03
3.70753	100.04
3.72420	100.04
3.74087	100.03
3.75753	100.04
3.77420	100.04
3.79087	100.04
3.80753	100.04
3.82420	100.04
3.84087	100.04
3.85753	100.04
3.87420	100.04
3.89087	100.04
3.90753	100.04
3.92420	100.04
3.94087	100.04
3.95753	100.04
3.97420	100.04
3.99087	100.05

[Status Trace (Carrier Gas Pressure)]
Interval(msec)	1000
# of Points	240
Start Time(min)	0.008
End Time(min)	3.991
Intensity Units	
Intensity Multiplier	1
R.Time (min)	Intensity
0.00753	58.00
0.02420	55.50
0.04087	57.07
0.05753	59.26
0.07420	59.47
0.09087	58.07
0.10753	57.98
0.12420	58.01
0.14087	58.01
0.15753	58.00
0.17420	58.00
0.19087	58.00
0.20753	58.00
0.22420	58.00
0.24087	58.00
0.25753	58.00
0.27420	58.00
0.29087	58.00
0.30753	58.00
0.32420	58.00
0.34087	58.00
0.35753	58.00
0.37420	58.00
0.39087	58.00
0.40753	58.00
0.42420	58.00
0.44087	58.00
0.45753	58.00
0.47420	58.00
0.49087	58.00
0.50753	58.00
0.52420	58.00
0.54087	58.00
0.55753	58.00
0.57420	58.00
0.59087	58.00
0.60753	58.00
0.62420	58.00
0.64087	58.00
0.65753	58.00
0.67420	58.00
0.69087	58.00
0.70753	58.00
0.72420	58.00
0.74087	58.00
0.75753	58.00
0.77420	58.00
0.79087	58.00
0.80753	58.00
0.82420	58.00
0.84087	58.00
0.85753	58.00
0.87420	58.00
0.89087	58.00
0.90753	58.00
0.92420	58.00
0.94087	58.00
0.95753	58.00
0.97420	58.00
0.99087	58.00
1.00753	58.00
1.02420	58.00
1.04087	58.00
1.05753	58.00
1.07420	58.00
1.09087	58.00
1.10753	58.00
1.12420	58.00
1.14087	58.00
1.15753	58.00
1.17420	58.00
1.19087	58.00
1.20753	58.00
1.22420	58.00
1.24087	58.00
1.25753	58.00
1.27420	58.00
1.29087	58.00
1.30753	58.00
1.32420	58.00
1.34087	58.00
1.35753	58.00
1.37420	58.00
1.39087	58.00
1.40753	58.00
1.42420	58.00
1.44087	58.00
1.45753	58.00
1.47420	58.00
1.49087	58.00
1.50753	58.00
1.52420	58.00
1.54087	58.00
1.55753	58.00
1.57420	58.00
1.59087	58.00
1.60753	58.00
1.62420	58.00
1.64087	58.00
1.65753	58.00
1.67420	58.01
1.69087	58.01
1.70753	58.00
1.72420	58.00
1.74087	58.00
1.75753	58.00
1.77420	58.00
1.79087	58.00
1.80753	58.00
1.82420	58.00
1.84087	58.00
1.85753	58.00
1.87420	58.00
1.89087	58.00
1.90753	58.00
1.92420	58.00
1.94087	58.00
1.95753	58.00
1.97420	58.00
1.99087	58.00
2.00753	58.00
2.02420	58.00
2.04087	58.00
2.05753	58.00
2.07420	58.00
2.09087	58.00
2.10753	58.00
2.12420	58.00
2.14087	58.00
2.15753	58.00
2.17420	58.00
2.19087	58.00
2.20753	58.00
2.22420	58.00
2.24087	58.00
2.25753	58.00
2.27420	58.00
2.29087	58.00
2.30753	58.00
2.32420	58.00
2.34087	58.00
2.35753	58.00
2.37420	58.00
2.39087	57.99
2.40753	57.99
2.42420	58.00
2.44087	58.00
2.45753	58.00
2.47420	58.00
2.49087	58.00
2.50753	58.00
2.52420	57.98
2.54087	58.00
2.55753	58.00
2.57420	58.00
2.59087	58.00
2.60753	58.00
2.62420	58.00
2.64087	58.00
2.65753	58.00
2.67420	58.00
2.69087	58.00
2.70753	58.00
2.72420	58.00
2.74087	58.00
2.75753	58.00
2.77420	58.00
2.79087	58.00
2.80753	58.00
2.82420	58.00
2.84087	58.00
2.85753	58.00
2.87420	58.00
2.89087	58.00
2.90753	58.00
2.92420	58.00
2.94087	58.00
2.95753	58.00
2.97420	58.00
2.99087	58.00
3.00753	58.00
3.02420	58.00
3.04087	58.00
3.05753	58.00
3.07420	58.00
3.09087	58.00
3.10753	58.00
3.12420	58.00
3.14087	58.00
3.15753	58.00
3.17420	58.00
3.19087	58.00
3.20753	58.00
3.22420	58.00
3.24087	58.00
3.25753	58.00
3.27420	58.00
3.29087	58.00
3.30753	58.00
3.32420	58.00
3.34087	58.00
3.35753	58.00
3.37420	58.00
3.39087	58.00
3.40753	58.00
3.42420	58.00
3.44087	58.00
3.45753	58.00
3.47420	58.00
3.49087	58.00
3.50753	58.00
3.52420	58.00
3.54087	58.00
3.55753	58.00
3.57420	58.00
3.59087	58.00
3.60753	58.00
3.62420	58.00
3.64087	58.00
3.65753	58.00
3.67420	58.00
3.69087	58.00
3.70753	58.00
3.72420	58.00
3.74087	58.00
3.75753	58.00
3.77420	58.00
3.79087	58.00
3.80753	58.00
3.82420	58.00
3.84087	58.00
3.85753	58.00
3.87420	58.00
3.89087	58.00
3.90753	58.00
3.92420	58.00
3.94087	58.00
3.95753	58.00
3.97420	58.00
3.99087	58.00

[Status Trace (Carrier Gas Flow)]
Interval(msec)	1000
# of Points	240
Start Time(min)	0.008
End Time(min)	3.991
Intensity Units	
Intensity Multiplier	1
R.Time (min)	Intensity
0.00753	34.52
0.02420	34.53
0.04087	34.54
0.05753	34.55
0.07420	34.49
0.09087	34.52
0.10753	34.52
0.12420	34.52
0.14087	34.52
0.15753	34.51
0.17420	34.52
0.19087	34.52
0.20753	34.52
0.22420	34.52
0.24087	34.52
0.25753	34.52
0.27420	34.52
0.29087	34.52
0.30753	34.52
0.32420	34.52
0.34087	34.53
0.35753	34.53
0.37420	34.52
0.39087	34.52
0.40753	34.51
0.42420	34.52
0.44087	34.52
0.45753	34.52
0.47420	34.51
0.49087	34.51
0.50753	34.52
0.52420	34.52
0.54087	34.52
0.55753	34.53
0.57420	34.52
0.59087	34.51
0.60753	34.51
0.62420	34.52
0.64087	34.52
0.65753	34.52
0.67420	34.52
0.69087	34.52
0.70753	34.52
0.72420	34.52
0.74087	34.52
0.75753	34.52
0.77420	34.52
0.79087	34.52
0.80753	34.52
0.82420	34.52
0.84087	34.52
0.85753	34.52
0.87420	34.52
0.89087	34.52
0.90753	34.52
0.92420	34.51
0.94087	34.52
0.95753	34.52
0.97420	34.52
0.99087	34.52
1.00753	34.52
1.02420	34.52
1.04087	34.52
1.05753	34.52
1.07420	34.52
1.09087	34.52
1.10753	34.52
1.12420	34.52
1.14087	34.52
1.15753	34.52
1.17420	34.51
1.19087	34.52
1.20753	34.52
1.22420	34.51
1.24087	34.52
1.25753	34.52
1.27420	34.52
1.29087	34.52
1.30753	34.52
1.32420	34.52
1.34087	34.52
1.35753	34.52
1.37420	34.52
1.39087	34.52
1.40753	34.52
1.42420	34.52
1.44087	34.51
1.45753	34.53
1.47420	34.52
1.49087	34.52
1.50753	34.53
1.52420	34.52
1.54087	34.52
1.55753	34.52
1.57420	34.52
1.59087	34.52
1.60753	34.52
1.62420	34.52
1.64087	34.52
1.65753	34.52
1.67420	34.52
1.69087	34.52
1.70753	34.52
1.72420	34.52
1.74087	34.52
1.75753	34.52
1.77420	34.52
1.79087	34.52
1.80753	34.52
1.82420	34.52
1.84087	34.52
1.85753	34.52
1.87420	34.52
1.89087	34.52
1.90753	34.52
1.92420	34.52
1.94087	34.52
1.95753	34.52
1.97420	34.52
1.99087	34.52
2.00753	34.52
2.02420	34.52
2.04087	34.52
2.05753	34.52
2.07420	34.52
2.09087	34.52
2.10753	34.51
2.12420	34.52
2.14087	34.52
2.15753	34.51
2.17420	34.52
2.19087	34.52
2.20753	34.52
2.22420	34.52
2.24087	34.52
2.25753	34.52
2.27420	34.52
2.29087	34.52
2.30753	34.52
2.32420	34.52
2.34087	34.52
2.35753	34.52
2.37420	34.52
2.39087	34.52
2.40753	34.52
2.42420	34.52
2.44087	34.52
2.45753	34.52
2.47420	34.51
2.49087	34.52
2.50753	34.40
2.52420	34.52
2.54087	34.52
2.55753	34.52
2.57420	34.52
2.59087	34.52
2.60753	34.52
2.62420	34.52
2.64087	34.52
2.65753	34.52
2.67420	34.51
2.69087	34.52
2.70753	34.52
2.72420	34.52
2.74087	34.52
2.75753	34.52
2.77420	34.52
2.79087	34.52
2.80753	34.52
2.82420	34.52
2.84087	34.52
2.85753	34.52
2.87420	34.51
2.89087	34.52
2.90753	34.52
2.92420	34.52
2.94087	34.52
2.95753	34.52
2.97420	34.52
2.99087	34.52
3.00753	34.52
3.02420	34.52
3.04087	34.52
3.05753	34.52
3.07420	34.52
3.09087	34.52
3.10753	34.52
3.12420	34.52
3.14087	34.51
3.15753	34.52
3.17420	34.52
3.19087	34.52
3.20753	34.51
3.22420	34.52
3.24087	34.52
3.25753	34.52
3.27420	34.52
3.29087	34.52
3.30753	34.52
3.32420	34.52
3.34087	34.52
3.35753	34.52
3.37420	34.52
3.39087	34.52
3.40753	34.52
3.42420	34.52
3.44087	34.52
3.45753	34.52
3.47420	34.52
3.49087	34.52
3.50753	34.52
3.52420	34.52
3.54087	34.52
3.55753	34.52
3.57420	34.51
3.59087	34.51
3.60753	34.51
3.62420	34.51
3.64087	34.52
3.65753	34.51
3.67420	34.51
3.69087	34.52
3.70753	34.53
3.72420	34.52
3.74087	34.52
3.75753	34.52
3.77420	34.52
3.79087	34.52
3.80753	34.52
3.82420	34.52
3.84087	34.52
3.85753	34.52
3.87420	34.52
3.89087	34.52
3.90753	34.52
3.92420	34.52
3.94087	34.52
3.95753	34.52
3.97420	34.52
3.99087	34.52

[Status Trace (Column Flow)]
Interval(msec)	1000
# of Points	240
Start Time(min)	0.008
End Time(min)	3.991
Intensity Units	
Intensity Multiplier	1
R.Time (min)	Intensity
0.00753	5.54
0.02420	5.25
0.04087	5.43
0.05753	5.69
0.07420	5.71
0.09087	5.55
0.10753	5.54
0.12420	5.54
0.14087	5.54
0.15753	5.54
0.17420	5.54
0.19087	5.54
0.20753	5.54
0.22420	5.54
0.24087	5.54
0.25753	5.54
0.27420	5.54
0.29087	5.54
0.30753	5.54
0.32420	5.54
0.34087	5.54
0.35753	5.54
0.37420	5.54
0.39087	5.54
0.40753	5.54
0.42420	5.54
0.44087	5.54
0.45753	5.54
0.47420	5.54
0.49087	5.54
0.50753	5.54
0.52420	5.54
0.54087	5.54
0.55753	5.54
0.57420	5.54
0.59087	5.54
0.60753	5.54
0.62420	5.54
0.64087	5.54
0.65753	5.54
0.67420	5.54
0.69087	5.54
0.70753	5.54
0.72420	5.54
0.74087	5.54
0.75753	5.54
0.77420	5.54
0.79087	5.54
0.80753	5.54
0.82420	5.54
0.84087	5.54
0.85753	5.54
0.87420	5.54
0.89087	5.54
0.90753	5.54
0.92420	5.54
0.94087	5.54
0.95753	5.54
0.97420	5.54
0.99087	5.54
1.00753	5.54
1.02420	5.54
1.04087	5.54
1.05753	5.54
1.07420	5.54
1.09087	5.54
1.10753	5.54
1.12420	5.54
1.14087	5.54
1.15753	5.54
1.17420	5.54
1.19087	5.54
1.20753	5.54
1.22420	5.54
1.24087	5.54
1.25753	5.54
1.27420	5.54
1.29087	5.54
1.30753	5.54
1.32420	5.54
1.34087	5.54
1.35753	5.54
1.37420	5.54
1.39087	5.54
1.40753	5.54
1.42420	5.54
1.44087	5.54
1.45753	5.54
1.47420	5.54
1.49087	5.54
1.50753	5.54
1.52420	5.54
1.54087	5.54
1.55753	5.54
1.57420	5.54
1.59087	5.54
1.60753	5.54
1.62420	5.53
1.64087	5.53
1.65753	5.52
1.67420	5.51
1.69087	5.50
1.70753	5.49
1.72420	5.48
1.74087	5.46
1.75753	5.45
1.77420	5.44
1.79087	5.43
1.80753	5.42
1.82420	5.41
1.84087	5.40
1.85753	5.39
1.87420	5.38
1.89087	5.37
1.90753	5.36
1.92420	5.35
1.94087	5.34
1.95753	5.33
1.97420	5.32
1.99087	5.32
2.00753	5.31
2.02420	5.30
2.04087	5.29
2.05753	5.28
2.07420	5.27
2.09087	5.26
2.10753	5.25
2.12420	5.24
2.14087	5.23
2.15753	5.22
2.17420	5.21
2.19087	5.20
2.20753	5.19
2.22420	5.18
2.24087	5.17
2.25753	5.16
2.27420	5.15
2.29087	5.15
2.30753	5.14
2.32420	5.13
2.34087	5.12
2.35753	5.11
2.37420	5.10
2.39087	5.10
2.40753	5.10
2.42420	5.10
2.44087	5.10
2.45753	5.10
2.47420	5.10
2.49087	5.10
2.50753	5.10
2.52420	5.10
2.54087	5.10
2.55753	5.10
2.57420	5.10
2.59087	5.10
2.60753	5.10
2.62420	5.10
2.64087	5.10
2.65753	5.10
2.67420	5.10
2.69087	5.10
2.70753	5.10
2.72420	5.10
2.74087	5.10
2.75753	5.10
2.77420	5.10
2.79087	5.10
2.80753	5.10
2.82420	5.10
2.84087	5.10
2.85753	5.10
2.87420	5.10
2.89087	5.10
2.90753	5.10
2.92420	5.10
2.94087	5.10
2.95753	5.10
2.97420	5.09
2.99087	5.09
3.00753	5.09
3.02420	5.09
3.04087	5.09
3.05753	5.09
3.07420	5.09
3.09087	5.09
3.10753	5.09
3.12420	5.09
3.14087	5.09
3.15753	5.09
3.17420	5.09
3.19087	5.09
3.20753	5.09
3.22420	5.09
3.24087	5.09
3.25753	5.09
3.27420	5.09
3.29087	5.09
3.30753	5.09
3.32420	5.09
3.34087	5.09
3.35753	5.09
3.37420	5.09
3.39087	5.09
3.40753	5.09
3.42420	5.09
3.44087	5.09
3.45753	5.09
3.47420	5.09
3.49087	5.09
3.50753	5.09
3.52420	5.09
3.54087	5.09
3.55753	5.09
3.57420	5.09
3.59087	5.09
3.60753	5.09
3.62420	5.09
3.64087	5.09
3.65753	5.09
3.67420	5.09
3.69087	5.09
3.70753	5.09
3.72420	5.09
3.74087	5.09
3.75753	5.09
3.77420	5.09
3.79087	5.09
3.80753	5.09
3.82420	5.09
3.84087	5.09
3.85753	5.09
3.87420	5.09
3.89087	5.09
3.90753	5.09
3.92420	5.09
3.94087	5.09
3.95753	5.09
3.97420	5.09
3.99087	5.09

[Status Trace (Linear Velocity)]
Interval(msec)	1000
# of Points	240
Start Time(min)	0.008
End Time(min)	3.991
Intensity Units	
Intensity Multiplier	1
R.Time (min)	Intensity
0.00753	39.02
0.02420	37.38
0.04087	38.41
0.05753	39.85
0.07420	39.98
0.09087	39.06
0.10753	39.01
0.12420	39.03
0.14087	39.03
0.15753	39.02
0.17420	39.02
0.19087	39.02
0.20753	39.02
0.22420	39.02
0.24087	39.02
0.25753	39.02
0.27420	39.02
0.29087	39.02
0.30753	39.02
0.32420	39.02
0.34087	39.02
0.35753	39.02
0.37420	39.02
0.39087	39.02
0.40753	39.02
0.42420	39.02
0.44087	39.02
0.45753	39.02
0.47420	39.02
0.49087	39.02
0.50753	39.02
0.52420	39.02
0.54087	39.02
0.55753	39.02
0.57420	39.02
0.59087	39.02
0.60753	39.02
0.62420	39.02
0.64087	39.02
0.65753	39.02
0.67420	39.02
0.69087	39.02
0.70753	39.02
0.72420	39.02
0.74087	39.02
0.75753	39.02
0.77420	39.02
0.79087	39.02
0.80753	39.02
0.82420	39.02
0.84087	39.02
0.85753	39.02
0.87420	39.02
0.89087	39.02
0.90753	39.02
0.92420	39.02
0.94087	39.02
0.95753	39.02
0.97420	39.02
0.99087	39.02
1.00753	39.02
1.02420	39.02
1.04087	39.02
1.05753	39.02
1.07420	39.02
1.09087	39.02
1.10753	39.02
1.12420	39.02
1.14087	39.02
1.15753	39.02
1.17420	39.02
1.19087	39.02
1.20753	39.02
1.22420	39.02
1.24087	39.02
1.25753	39.02
1.27420	39.02
1.29087	39.02
1.30753	39.02
1.32420	39.02
1.34087	39.02
1.35753	39.02
1.37420	39.02
1.39087	39.02
1.40753	39.02
1.42420	39.02
1.44087	39.02
1.45753	39.02
1.47420	39.02
1.49087	39.02
1.50753	39.02
1.52420	39.02
1.54087	39.02
1.55753	39.02
1.57420	39.02
1.59087	39.02
1.60753	39.01
1.62420	39.00
1.64087	38.99
1.65753	38.96
1.67420	38.93
1.69087	38.90
1.70753	38.86
1.72420	38.83
1.74087	38.80
1.75753	38.76
1.77420	38.73
1.79087	38.70
1.80753	38.67
1.82420	38.64
1.84087	38.61
1.85753	38.58
1.87420	38.55
1.89087	38.52
1.90753	38.49
1.92420	38.46
1.94087	38.43
1.95753	38.40
1.97420	38.36
1.99087	38.33
2.00753	38.30
2.02420	38.27
2.04087	38.24
2.05753	38.21
2.07420	38.18
2.09087	38.16
2.10753	38.12
2.12420	38.09
2.14087	38.07
2.15753	38.04
2.17420	38.01
2.19087	37.98
2.20753	37.95
2.22420	37.92
2.24087	37.89
2.25753	37.86
2.27420	37.83
2.29087	37.80
2.30753	37.77
2.32420	37.74
2.34087	37.71
2.35753	37.69
2.37420	37.66
2.39087	37.65
2.40753	37.65
2.42420	37.65
2.44087	37.65
2.45753	37.65
2.47420	37.65
2.49087	37.65
2.50753	37.65
2.52420	37.64
2.54087	37.65
2.55753	37.65
2.57420	37.65
2.59087	37.65
2.60753	37.65
2.62420	37.65
2.64087	37.65
2.65753	37.65
2.67420	37.65
2.69087	37.65
2.70753	37.65
2.72420	37.65
2.74087	37.65
2.75753	37.65
2.77420	37.65
2.79087	37.65
2.80753	37.65
2.82420	37.65
2.84087	37.65
2.85753	37.65
2.87420	37.65
2.89087	37.64
2.90753	37.64
2.92420	37.64
2.94087	37.64
2.95753	37.64
2.97420	37.64
2.99087	37.64
3.00753	37.64
3.02420	37.64
3.04087	37.64
3.05753	37.64
3.07420	37.63
3.09087	37.63
3.10753	37.63
3.12420	37.63
3.14087	37.63
3.15753	37.63
3.17420	37.63
3.19087	37.63
3.20753	37.63
3.22420	37.63
3.24087	37.63
3.25753	37.63
3.27420	37.63
3.29087	37.63
3.30753	37.63
3.32420	37.63
3.34087	37.63
3.35753	37.63
3.37420	37.63
3.39087	37.63
3.40753	37.63
3.42420	37.63
3.44087	37.63
3.45753	37.63
3.47420	37.63
3.49087	37.63
3.50753	37.63
3.52420	37.63
3.54087	37.63
3.55753	37.63
3.57420	37.63
3.59087	37.63
3.60753	37.63
3.62420	37.63
3.64087	37.63
3.65753	37.64
3.67420	37.63
3.69087	37.64
3.70753	37.63
3.72420	37.63
3.74087	37.63
3.75753	37.63
3.77420	37.63
3.79087	37.63
3.80753	37.63
3.82420	37.63
3.84087	37.63
3.85753	37.63
3.87420	37.63
3.89087	37.63
3.90753	37.63
3.92420	37.63
3.94087	37.63
3.95753	37.63
3.97420	37.63
3.99087	37.63

