[Header]
Application Name	LabSolutions
Version	5.110
Data File Name	C:\Users\User\Desktop\GC Analyses\Jack\Nachusa Grasslands Sampling\T3 Timepoint July 12th\T3_07122022_078.gcd
Output Date	3/14/2023
Output Time	3:43:35 PM

[File Information]
Type	Data File
Generated	3/13/2023 11:13:04 PM
Generated by	System Administrator
Modified	3/13/2023 11:19:58 PM
Modified by	System Administrator

[Sample Information]
Operator Name	System Administrator
Acquired	3/13/2023 11:15:57 PM
Sample Type	0:Unknown
Level	0
Sample Name	078
Sample ID	078
ISTD Amount1	1
ISTD Amount2	1
ISTD Amount3	1
ISTD Amount4	1
ISTD Amount5	1
ISTD Amount6	1
ISTD Amount7	1
ISTD Amount8	1
ISTD Amount9	1
ISTD Amount10	1
ISTD Amount11	1
ISTD Amount12	1
ISTD Amount13	1
ISTD Amount14	1
ISTD Amount15	1
ISTD Amount16	1
ISTD Amount17	1
ISTD Amount18	1
ISTD Amount19	1
ISTD Amount20	1
ISTD Amount21	1
ISTD Amount22	1
ISTD Amount23	1
ISTD Amount24	1
ISTD Amount25	1
ISTD Amount26	1
ISTD Amount27	1
ISTD Amount28	1
ISTD Amount29	1
ISTD Amount30	1
ISTD Amount31	1
ISTD Amount32	1
Sample Amount	1
Dilution Factor	1
Vial#	77
Injection Volume	1
Injection Count	1
Bar Code	

[Original Files]
Data File	C:\Users\User\Desktop\GC Analyses\Jack\Nachusa Grasslands Sampling\T3 Timepoint July 12th\T3_07122022_078.gcd
Method File	C:\LabSolutions\Data\GHG_4min_2022\ghg3_togas_w_acet_4 min_new_int.gcm
Batch File	C:\LabSolutions\Data\AutoSamplerTesting\T3_07122022.gcb
Report Format File	c:\LabSolutions\System\DEFAULT.lsr

[File Description]


[Configuration]
Instrument Name	C0B7VH3-Instrument1
Instrument #	1
Line #	1
# of Detectors	3
Detector ID	DET#1	DET#2	DET#3
Detector Name	FID	PTCD	ECD
# of Channels	1	1	1

[Peak Table(Ch1)]
# of Peaks	3
Peak#	R.Time	I.Time	F.Time	Area	Height	A/H	Conc.	Mark	ID#	Name	k'	Plate #	Plate Ht.	Tailing	Resolution	Sep.Factor	Area Ratio	Height Ratio	Conc. %	Norm Conc.
1	1.476	1.432	1.534	27115	13377	2.027	191.435	   	1	CO	0.000	9641	15.559	1.269	0.000	0.000	0	0	18.741	18.741
2	1.571	1.538	1.630	3969	2052	1.935	76.752	   	2	CH4	0.065	11875	12.632	1.115	1.619	0.000	0	0	7.514	7.514
3	1.996	1.945	2.334	3001563	1443478	2.079	753.311	   	3	CO2	0.353	17440	8.601	1.334	7.201	5.462	0	0	73.746	73.746

[Peak Table(Ch2)]
# of Peaks	0

[Peak Table(Ch3)]
# of Peaks	5
Peak#	R.Time	I.Time	F.Time	Area	Height	A/H	Conc.	Mark	ID#	Name	k'	Plate #	Plate Ht.	Tailing	Resolution	Sep.Factor	Area Ratio	Height Ratio	Conc. %	Norm Conc.
1	2.458	1.652	2.510	7115	818	8.702	0.000	   			0.000	9174	16.351	0.000	0.000	0.000	0	0	0.000	0.000
2	2.528	2.510	2.583	1328	432	3.071	0.000	 V 			0.028	4793	31.298	0.000	0.560	0.000	0	0	0.000	0.000
3	2.601	2.583	2.689	676	187	3.620	0.000	 V 			0.058	860	174.482	0.000	0.293	2.053	0	0	0.000	0.000
4	2.880	2.792	3.078	17917	4715	3.800	0.458	   	1	N2O	0.172	13245	11.325	1.517	1.225	2.949	0	0	100.000	100.000
5	3.540	3.250	3.577	1177	91	12.882	0.000	   			0.440	2533	59.212	0.561	3.461	2.565	0	0	0.000	0.000

[Compound Results(Ch1)]
# of IDs	6
ID#	Name	R.Time	Area	Height	Conc.	Curve	3rd	2nd	1st	Constant	Area Ratio	Height Ratio	Conc. %	Norm Conc.
1	CO	1.476	27115	13377	191.435	Linear	0.000000e+00	0.000000e+00	1.416423e+002	0.000000e+00	0	0	18.741	18.741
2	CH4	1.571	3969	2052	76.752	Linear	0.000000e+00	0.000000e+00	5.171738e+001	0.000000e+00	0	0	7.514	7.514
3	CO2	1.996	3001563	1443478	753.311	Linear	0.000000e+00	0.000000e+00	3.984494e+003	0.000000e+00	0	0	73.746	73.746
4	Ethylene	0.000	0	0	0.000	Linear	0.000000e+00	0.000000e+00	0.000000e+00	0.000000e+00	0	0	0.000	0.000
5	Acetylene	0.000	0	0	0.000	Linear	0.000000e+00	0.000000e+00	0.000000e+00	0.000000e+00	0	0	0.000	0.000
6	Ethane	0.000	0	0	0.000	Linear	0.000000e+00	0.000000e+00	0.000000e+00	0.000000e+00	0	0	0.000	0.000

[Compound Results(Ch2)]
# of IDs	5
ID#	Name	R.Time	Area	Height	Conc.	Curve	3rd	2nd	1st	Constant	Area Ratio	Height Ratio	Conc. %	Norm Conc.
1	Hydrogen	0.000	0	0	0.000	Linear	0.000000e+00	0.000000e+00	0.000000e+00	0.000000e+00	0	0	0.000	0.000
2	Oxygen	0.000	0	0	0.000	Linear	0.000000e+00	0.000000e+00	0.000000e+00	0.000000e+00	0	0	0.000	0.000
3	Nitrogen	0.000	0	0	0.000	Linear	0.000000e+00	0.000000e+00	0.000000e+00	0.000000e+00	0	0	0.000	0.000
4	Methane	0.000	0	0	0.000	Linear	0.000000e+00	0.000000e+00	0.000000e+00	0.000000e+00	0	0	0.000	0.000
5	Carbon Monoxide	0.000	0	0	0.000	Linear	0.000000e+00	0.000000e+00	0.000000e+00	0.000000e+00	0	0	0.000	0.000

[Compound Results(Ch3)]
# of IDs	2
ID#	Name	R.Time	Area	Height	Conc.	Curve	3rd	2nd	1st	Constant	Area Ratio	Height Ratio	Conc. %	Norm Conc.
1	N2O	2.880	17917	4715	0.458	Linear	0.000000e+00	0.000000e+00	3.915173e+004	0.000000e+00	0	0	100.000	100.000
2	SF6	0.000	0	0	0.000	Linear	0.000000e+00	0.000000e+00	0.000000e+00	0.000000e+00	0	0	0.000	0.000

[Group Results(Ch1)]
# of Groups	0

[Group Results(Ch2)]
# of Groups	0

[Group Results(Ch3)]
# of Groups	0

[Chromatogram (Ch1)]
Interval(msec)	220
# of Points	1091
Start Time(min)	0.002
End Time(min)	3.998
R.Time (min)	Intensity
0.00167	4
0.00533	3
0.00900	3
0.01267	4
0.01633	7
0.02000	11
0.02367	13
0.02733	15
0.03100	18
0.03467	22
0.03833	28
0.04200	31
0.04567	29
0.04933	26
0.05300	23
0.05667	22
0.06033	22
0.06400	26
0.06767	30
0.07133	36
0.07500	42
0.07867	49
0.08233	52
0.08600	54
0.08967	55
0.09333	51
0.09700	42
0.10067	29
0.10433	14
0.10800	2
0.11167	-4
0.11533	-11
0.11900	-12
0.12267	-4
0.12633	9
0.13000	23
0.13367	32
0.13733	36
0.14100	33
0.14467	26
0.14833	20
0.15200	17
0.15567	15
0.15933	14
0.16300	14
0.16667	18
0.17033	23
0.17400	23
0.17767	18
0.18133	14
0.18500	12
0.18867	12
0.19233	18
0.19600	28
0.19967	37
0.20333	45
0.20700	53
0.21067	59
0.21433	58
0.21800	51
0.22167	41
0.22533	28
0.22900	17
0.23267	12
0.23633	11
0.24000	12
0.24367	13
0.24733	15
0.25100	15
0.25467	19
0.25833	29
0.26200	36
0.26567	39
0.26933	42
0.27300	50
0.27667	56
0.28033	55
0.28400	47
0.28767	39
0.29133	33
0.29500	26
0.29867	20
0.30233	18
0.30600	23
0.30967	29
0.31333	34
0.31700	36
0.32067	33
0.32433	22
0.32800	9
0.33167	3
0.33533	6
0.33900	14
0.34267	21
0.34633	24
0.35000	22
0.35367	17
0.35733	11
0.36100	9
0.36467	8
0.36833	11
0.37200	18
0.37567	26
0.37933	34
0.38300	41
0.38667	46
0.39033	45
0.39400	42
0.39767	43
0.40133	44
0.40500	39
0.40867	32
0.41233	27
0.41600	25
0.41967	29
0.42333	32
0.42700	35
0.43067	39
0.43433	42
0.43800	43
0.44167	40
0.44533	34
0.44900	28
0.45267	27
0.45633	29
0.46000	31
0.46367	34
0.46733	41
0.47100	47
0.47467	50
0.47833	49
0.48200	43
0.48567	37
0.48933	32
0.49300	33
0.49667	35
0.50033	36
0.50400	36
0.50767	38
0.51133	36
0.51500	34
0.51867	31
0.52233	28
0.52600	30
0.52967	35
0.53333	35
0.53700	29
0.54067	24
0.54433	21
0.54800	21
0.55167	25
0.55533	33
0.55900	43
0.56267	51
0.56633	59
0.57000	63
0.57367	59
0.57733	56
0.58100	50
0.58467	43
0.58833	32
0.59200	26
0.59567	27
0.59933	30
0.60300	36
0.60667	42
0.61033	52
0.61400	64
0.61767	75
0.62133	78
0.62500	74
0.62867	66
0.63233	61
0.63600	59
0.63967	58
0.64333	58
0.64700	56
0.65067	51
0.65433	49
0.65800	53
0.66167	61
0.66533	69
0.66900	70
0.67267	69
0.67633	67
0.68000	66
0.68367	64
0.68733	63
0.69100	62
0.69467	61
0.69833	56
0.70200	51
0.70567	48
0.70933	52
0.71300	59
0.71667	71
0.72033	86
0.72400	95
0.72767	97
0.73133	90
0.73500	77
0.73867	61
0.74233	46
0.74600	36
0.74967	29
0.75333	24
0.75700	25
0.76067	32
0.76433	38
0.76800	39
0.77167	39
0.77533	40
0.77900	45
0.78267	51
0.78633	54
0.79000	60
0.79367	69
0.79733	77
0.80100	80
0.80467	79
0.80833	75
0.81200	70
0.81567	68
0.81933	68
0.82300	69
0.82667	69
0.83033	70
0.83400	72
0.83767	69
0.84133	63
0.84500	55
0.84867	46
0.85233	39
0.85600	34
0.85967	32
0.86333	34
0.86700	43
0.87067	51
0.87433	51
0.87800	44
0.88167	37
0.88533	33
0.88900	34
0.89267	36
0.89633	36
0.90000	37
0.90367	39
0.90733	39
0.91100	41
0.91467	44
0.91833	46
0.92200	54
0.92567	63
0.92933	64
0.93300	55
0.93667	44
0.94033	36
0.94400	31
0.94767	31
0.95133	32
0.95500	32
0.95867	37
0.96233	39
0.96600	34
0.96967	26
0.97333	19
0.97700	16
0.98067	20
0.98433	26
0.98800	29
0.99167	30
0.99533	32
0.99900	36
1.00267	39
1.00633	40
1.01000	37
1.01367	36
1.01733	40
1.02100	43
1.02467	43
1.02833	41
1.03200	38
1.03567	34
1.03933	28
1.04300	23
1.04667	23
1.05033	21
1.05400	21
1.05767	20
1.06133	21
1.06500	23
1.06867	29
1.07233	33
1.07600	33
1.07967	35
1.08333	40
1.08700	46
1.09067	46
1.09433	43
1.09800	39
1.10167	32
1.10533	29
1.10900	30
1.11267	28
1.11633	21
1.12000	17
1.12367	17
1.12733	17
1.13100	17
1.13467	15
1.13833	16
1.14200	21
1.14567	23
1.14933	21
1.15300	17
1.15667	13
1.16033	14
1.16400	14
1.16767	10
1.17133	9
1.17500	12
1.17867	15
1.18233	16
1.18600	15
1.18967	13
1.19333	15
1.19700	17
1.20067	27
1.20433	34
1.20800	30
1.21167	20
1.21533	7
1.21900	-4
1.22267	-13
1.22633	-15
1.23000	-11
1.23367	-3
1.23733	-2
1.24100	-3
1.24467	-3
1.24833	0
1.25200	4
1.25567	4
1.25933	5
1.26300	9
1.26667	16
1.27033	23
1.27400	23
1.27767	18
1.28133	15
1.28500	14
1.28867	10
1.29233	3
1.29600	-2
1.29967	-3
1.30333	-3
1.30700	-1
1.31067	2
1.31433	7
1.31800	11
1.32167	7
1.32533	-0
1.32900	-6
1.33267	-13
1.33633	-21
1.34000	-25
1.34367	-22
1.34733	-20
1.35100	-20
1.35467	-22
1.35833	-20
1.36200	-14
1.36567	-7
1.36933	-1
1.37300	2
1.37667	10
1.38033	15
1.38400	16
1.38767	9
1.39133	-1
1.39500	-11
1.39867	-15
1.40233	-18
1.40600	-20
1.40967	-18
1.41333	-11
1.41700	-7
1.42067	-9
1.42433	-11
1.42800	-12
1.43167	-11
1.43533	-10
1.43900	-3
1.44267	34
1.44633	184
1.45000	642
1.45367	1773
1.45733	3811
1.46100	6414
1.46467	8982
1.46833	11107
1.47200	12596
1.47567	13325
1.47933	13170
1.48300	12114
1.48667	10362
1.49033	8278
1.49400	6235
1.49767	4475
1.50133	3091
1.50500	2069
1.50867	1343
1.51233	843
1.51600	503
1.51967	276
1.52333	121
1.52700	13
1.53067	-60
1.53433	-104
1.53800	-117
1.54167	-75
1.54533	65
1.54900	340
1.55267	716
1.55633	1119
1.56000	1477
1.56367	1754
1.56733	1922
1.57100	1951
1.57467	1820
1.57833	1554
1.58200	1217
1.58567	885
1.58933	600
1.59300	375
1.59667	210
1.60033	101
1.60400	30
1.60767	-14
1.61133	-38
1.61500	-51
1.61867	-59
1.62233	-62
1.62600	-67
1.62967	-73
1.63333	-80
1.63700	-85
1.64067	-87
1.64433	-88
1.64800	-90
1.65167	-92
1.65533	-92
1.65900	-91
1.66267	-86
1.66633	-83
1.67000	-81
1.67367	-78
1.67733	-77
1.68100	-76
1.68467	-71
1.68833	-68
1.69200	-68
1.69567	-72
1.69933	-72
1.70300	-67
1.70667	-59
1.71033	-49
1.71400	-40
1.71767	-37
1.72133	-37
1.72500	-38
1.72867	-45
1.73233	-55
1.73600	-65
1.73967	-73
1.74333	-78
1.74700	-83
1.75067	-89
1.75433	-94
1.75800	-99
1.76167	-99
1.76533	-94
1.76900	-86
1.77267	-78
1.77633	-71
1.78000	-62
1.78367	-56
1.78733	-55
1.79100	-59
1.79467	-64
1.79833	-69
1.80200	-72
1.80567	-77
1.80933	-82
1.81300	-85
1.81667	-87
1.82033	-82
1.82400	-73
1.82767	-64
1.83133	-58
1.83500	-54
1.83867	-54
1.84233	-56
1.84600	-56
1.84967	-56
1.85333	-55
1.85700	-47
1.86067	-34
1.86433	-27
1.86800	-28
1.87167	-37
1.87533	-47
1.87900	-51
1.88267	-52
1.88633	-53
1.89000	-55
1.89367	-58
1.89733	-64
1.90100	-71
1.90467	-71
1.90833	-64
1.91200	-60
1.91567	-56
1.91933	-51
1.92300	-44
1.92667	-40
1.93033	-43
1.93400	-48
1.93767	-50
1.94133	-46
1.94500	-38
1.94867	-30
1.95233	-13
1.95600	120
1.95967	970
1.96333	5278
1.96700	21849
1.97067	70600
1.97433	180296
1.97800	370172
1.98167	628120
1.98533	911021
1.98900	1166431
1.99267	1352306
1.99633	1443493
2.00000	1431646
2.00367	1325774
2.00733	1150993
2.01100	941392
2.01467	730480
2.01833	542634
2.02200	389828
2.02567	273609
2.02933	189402
2.03300	130407
2.03667	89986
2.04033	62659
2.04400	44296
2.04767	31951
2.05133	23606
2.05500	17903
2.05867	13941
2.06233	11137
2.06600	9110
2.06967	7617
2.07333	6493
2.07700	5619
2.08067	4925
2.08433	4368
2.08800	3913
2.09167	3530
2.09533	3202
2.09900	2922
2.10267	2680
2.10633	2471
2.11000	2294
2.11367	2138
2.11733	1995
2.12100	1869
2.12467	1759
2.12833	1665
2.13200	1587
2.13567	1520
2.13933	1458
2.14300	1395
2.14667	1329
2.15033	1265
2.15400	1206
2.15767	1149
2.16133	1096
2.16500	1049
2.16867	1009
2.17233	971
2.17600	934
2.17967	902
2.18333	874
2.18700	850
2.19067	830
2.19433	817
2.19800	809
2.20167	797
2.20533	774
2.20900	746
2.21267	718
2.21633	694
2.22000	673
2.22367	653
2.22733	632
2.23100	612
2.23467	595
2.23833	575
2.24200	557
2.24567	541
2.24933	529
2.25300	518
2.25667	504
2.26033	491
2.26400	484
2.26767	485
2.27133	488
2.27500	488
2.27867	482
2.28233	473
2.28600	461
2.28967	449
2.29333	437
2.29700	427
2.30067	416
2.30433	406
2.30800	399
2.31167	395
2.31533	392
2.31900	387
2.32267	379
2.32633	372
2.33000	369
2.33367	366
2.33733	362
2.34100	361
2.34467	365
2.34833	369
2.35200	373
2.35567	369
2.35933	365
2.36300	362
2.36667	363
2.37033	364
2.37400	363
2.37767	359
2.38133	356
2.38500	354
2.38867	348
2.39233	340
2.39600	330
2.39967	321
2.40333	315
2.40700	314
2.41067	317
2.41433	321
2.41800	324
2.42167	326
2.42533	329
2.42900	329
2.43267	328
2.43633	326
2.44000	319
2.44367	311
2.44733	306
2.45100	302
2.45467	298
2.45833	295
2.46200	297
2.46567	298
2.46933	294
2.47300	289
2.47667	290
2.48033	290
2.48400	284
2.48767	279
2.49133	280
2.49500	277
2.49867	269
2.50233	262
2.50600	266
2.50967	276
2.51333	283
2.51700	291
2.52067	302
2.52433	307
2.52800	305
2.53167	299
2.53533	294
2.53900	289
2.54267	284
2.54633	280
2.55000	276
2.55367	272
2.55733	268
2.56100	267
2.56467	272
2.56833	274
2.57200	276
2.57567	278
2.57933	278
2.58300	276
2.58667	270
2.59033	264
2.59400	260
2.59767	253
2.60133	243
2.60500	236
2.60867	238
2.61233	244
2.61600	249
2.61967	248
2.62333	246
2.62700	251
2.63067	262
2.63433	269
2.63800	270
2.64167	265
2.64533	262
2.64900	260
2.65267	255
2.65633	246
2.66000	236
2.66367	231
2.66733	231
2.67100	234
2.67467	239
2.67833	247
2.68200	256
2.68567	260
2.68933	264
2.69300	267
2.69667	271
2.70033	275
2.70400	276
2.70767	277
2.71133	278
2.71500	277
2.71867	275
2.72233	269
2.72600	263
2.72967	259
2.73333	257
2.73700	264
2.74067	273
2.74433	278
2.74800	278
2.75167	273
2.75533	263
2.75900	259
2.76267	258
2.76633	257
2.77000	260
2.77367	262
2.77733	264
2.78100	265
2.78467	263
2.78833	263
2.79200	265
2.79567	271
2.79933	274
2.80300	274
2.80667	274
2.81033	275
2.81400	278
2.81767	277
2.82133	268
2.82500	257
2.82867	249
2.83233	252
2.83600	265
2.83967	274
2.84333	278
2.84700	280
2.85067	279
2.85433	276
2.85800	276
2.86167	277
2.86533	278
2.86900	280
2.87267	283
2.87633	287
2.88000	287
2.88367	285
2.88733	280
2.89100	278
2.89467	283
2.89833	292
2.90200	295
2.90567	289
2.90933	276
2.91300	269
2.91667	266
2.92033	269
2.92400	273
2.92767	276
2.93133	278
2.93500	283
2.93867	290
2.94233	291
2.94600	289
2.94967	290
2.95333	290
2.95700	290
2.96067	287
2.96433	282
2.96800	279
2.97167	280
2.97533	282
2.97900	288
2.98267	292
2.98633	295
2.99000	296
2.99367	300
2.99733	310
3.00100	316
3.00467	316
3.00833	309
3.01200	298
3.01567	299
3.01933	305
3.02300	307
3.02667	302
3.03033	293
3.03400	287
3.03767	286
3.04133	286
3.04500	285
3.04867	288
3.05233	287
3.05600	280
3.05967	273
3.06333	272
3.06700	274
3.07067	273
3.07433	270
3.07800	272
3.08167	278
3.08533	286
3.08900	291
3.09267	291
3.09633	292
3.10000	295
3.10367	301
3.10733	301
3.11100	291
3.11467	280
3.11833	276
3.12200	279
3.12567	285
3.12933	286
3.13300	280
3.13667	276
3.14033	274
3.14400	272
3.14767	274
3.15133	279
3.15500	279
3.15867	275
3.16233	267
3.16600	260
3.16967	254
3.17333	253
3.17700	256
3.18067	263
3.18433	273
3.18800	281
3.19167	287
3.19533	291
3.19900	295
3.20267	297
3.20633	297
3.21000	293
3.21367	285
3.21733	273
3.22100	264
3.22467	257
3.22833	255
3.23200	259
3.23567	265
3.23933	270
3.24300	275
3.24667	278
3.25033	278
3.25400	274
3.25767	267
3.26133	260
3.26500	256
3.26867	256
3.27233	255
3.27600	252
3.27967	248
3.28333	249
3.28700	254
3.29067	259
3.29433	266
3.29800	272
3.30167	276
3.30533	276
3.30900	279
3.31267	283
3.31633	284
3.32000	285
3.32367	286
3.32733	285
3.33100	279
3.33467	275
3.33833	276
3.34200	277
3.34567	279
3.34933	282
3.35300	286
3.35667	290
3.36033	292
3.36400	288
3.36767	280
3.37133	270
3.37500	264
3.37867	263
3.38233	264
3.38600	266
3.38967	268
3.39333	265
3.39700	255
3.40067	246
3.40433	239
3.40800	236
3.41167	235
3.41533	239
3.41900	242
3.42267	241
3.42633	240
3.43000	242
3.43367	243
3.43733	247
3.44100	252
3.44467	255
3.44833	261
3.45200	271
3.45567	282
3.45933	291
3.46300	290
3.46667	282
3.47033	274
3.47400	262
3.47767	248
3.48133	238
3.48500	234
3.48867	232
3.49233	234
3.49600	236
3.49967	243
3.50333	251
3.50700	260
3.51067	267
3.51433	268
3.51800	265
3.52167	259
3.52533	250
3.52900	242
3.53267	238
3.53633	234
3.54000	230
3.54367	227
3.54733	228
3.55100	235
3.55467	242
3.55833	248
3.56200	247
3.56567	239
3.56933	233
3.57300	227
3.57667	228
3.58033	234
3.58400	238
3.58767	241
3.59133	245
3.59500	251
3.59867	256
3.60233	257
3.60600	256
3.60967	256
3.61333	255
3.61700	253
3.62067	251
3.62433	247
3.62800	243
3.63167	239
3.63533	238
3.63900	234
3.64267	228
3.64633	225
3.65000	225
3.65367	225
3.65733	223
3.66100	219
3.66467	218
3.66833	213
3.67200	208
3.67567	208
3.67933	210
3.68300	211
3.68667	211
3.69033	212
3.69400	211
3.69767	213
3.70133	216
3.70500	220
3.70867	225
3.71233	228
3.71600	226
3.71967	218
3.72333	207
3.72700	199
3.73067	200
3.73433	205
3.73800	209
3.74167	215
3.74533	218
3.74900	214
3.75267	207
3.75633	203
3.76000	201
3.76367	201
3.76733	201
3.77100	198
3.77467	194
3.77833	191
3.78200	192
3.78567	195
3.78933	199
3.79300	206
3.79667	216
3.80033	222
3.80400	223
3.80767	221
3.81133	216
3.81500	210
3.81867	208
3.82233	206
3.82600	206
3.82967	206
3.83333	205
3.83700	202
3.84067	198
3.84433	197
3.84800	197
3.85167	199
3.85533	204
3.85900	210
3.86267	213
3.86633	212
3.87000	201
3.87367	183
3.87733	166
3.88100	159
3.88467	156
3.88833	155
3.89200	154
3.89567	160
3.89933	168
3.90300	176
3.90667	183
3.91033	190
3.91400	198
3.91767	205
3.92133	208
3.92500	201
3.92867	190
3.93233	179
3.93600	171
3.93967	167
3.94333	166
3.94700	161
3.95067	152
3.95433	147
3.95800	146
3.96167	152
3.96533	162
3.96900	173
3.97267	179
3.97633	181
3.98000	182
3.98367	185
3.98733	184
3.99100	181
3.99467	182
3.99833	180

[Chromatogram (Ch2)]
Interval(msec)	220
# of Points	1091
Start Time(min)	0.002
End Time(min)	3.998
R.Time (min)	Intensity
0.00167	-0
0.00533	-0
0.00900	-0
0.01267	-1
0.01633	-1
0.02000	-1
0.02367	-0
0.02733	-0
0.03100	-0
0.03467	0
0.03833	1
0.04200	1
0.04567	1
0.04933	1
0.05300	0
0.05667	0
0.06033	-0
0.06400	-0
0.06767	-0
0.07133	-0
0.07500	-1
0.07867	-1
0.08233	-1
0.08600	-0
0.08967	-0
0.09333	0
0.09700	0
0.10067	0
0.10433	0
0.10800	1
0.11167	1
0.11533	1
0.11900	1
0.12267	1
0.12633	1
0.13000	1
0.13367	1
0.13733	1
0.14100	1
0.14467	1
0.14833	1
0.15200	1
0.15567	1
0.15933	1
0.16300	1
0.16667	0
0.17033	0
0.17400	-0
0.17767	-0
0.18133	-0
0.18500	-0
0.18867	-0
0.19233	-0
0.19600	-0
0.19967	-0
0.20333	-0
0.20700	-0
0.21067	-0
0.21433	-0
0.21800	-0
0.22167	-0
0.22533	-0
0.22900	0
0.23267	0
0.23633	0
0.24000	0
0.24367	0
0.24733	0
0.25100	0
0.25467	-0
0.25833	-0
0.26200	-0
0.26567	-0
0.26933	-0
0.27300	-0
0.27667	-0
0.28033	-1
0.28400	-1
0.28767	-0
0.29133	-0
0.29500	-1
0.29867	-1
0.30233	-0
0.30600	-0
0.30967	-0
0.31333	-0
0.31700	-0
0.32067	-0
0.32433	-1
0.32800	-1
0.33167	-1
0.33533	-1
0.33900	-1
0.34267	-1
0.34633	-1
0.35000	-1
0.35367	-1
0.35733	-1
0.36100	-1
0.36467	-2
0.36833	-2
0.37200	-2
0.37567	-2
0.37933	-2
0.38300	-2
0.38667	-2
0.39033	-1
0.39400	-1
0.39767	-1
0.40133	-1
0.40500	-1
0.40867	-1
0.41233	-1
0.41600	-1
0.41967	-1
0.42333	-1
0.42700	-1
0.43067	-1
0.43433	-1
0.43800	-1
0.44167	-1
0.44533	-1
0.44900	-1
0.45267	-2
0.45633	-2
0.46000	-2
0.46367	-2
0.46733	-2
0.47100	-2
0.47467	-2
0.47833	-2
0.48200	-2
0.48567	-1
0.48933	-1
0.49300	-1
0.49667	-0
0.50033	-0
0.50400	0
0.50767	1
0.51133	1
0.51500	1
0.51867	1
0.52233	1
0.52600	1
0.52967	1
0.53333	1
0.53700	1
0.54067	1
0.54433	1
0.54800	1
0.55167	1
0.55533	1
0.55900	1
0.56267	1
0.56633	0
0.57000	0
0.57367	0
0.57733	-0
0.58100	-1
0.58467	-1
0.58833	-1
0.59200	-1
0.59567	-2
0.59933	-2
0.60300	-2
0.60667	-2
0.61033	-1
0.61400	-1
0.61767	-1
0.62133	-1
0.62500	-0
0.62867	-0
0.63233	-0
0.63600	-0
0.63967	-0
0.64333	-0
0.64700	-1
0.65067	-1
0.65433	-1
0.65800	-1
0.66167	-1
0.66533	-1
0.66900	-1
0.67267	-1
0.67633	-1
0.68000	-0
0.68367	-0
0.68733	-0
0.69100	-0
0.69467	-0
0.69833	0
0.70200	0
0.70567	0
0.70933	0
0.71300	0
0.71667	0
0.72033	0
0.72400	0
0.72767	0
0.73133	0
0.73500	0
0.73867	-0
0.74233	-0
0.74600	-0
0.74967	-0
0.75333	-0
0.75700	-1
0.76067	-1
0.76433	-1
0.76800	-0
0.77167	-0
0.77533	-0
0.77900	-0
0.78267	-0
0.78633	-0
0.79000	-0
0.79367	-1
0.79733	-1
0.80100	-1
0.80467	-1
0.80833	-1
0.81200	-1
0.81567	-0
0.81933	-0
0.82300	-0
0.82667	0
0.83033	0
0.83400	1
0.83767	1
0.84133	1
0.84500	1
0.84867	1
0.85233	0
0.85600	0
0.85967	-0
0.86333	-0
0.86700	-1
0.87067	-1
0.87433	-1
0.87800	-2
0.88167	-2
0.88533	-2
0.88900	-3
0.89267	-3
0.89633	-3
0.90000	-4
0.90367	-4
0.90733	-4
0.91100	-4
0.91467	-4
0.91833	-4
0.92200	-4
0.92567	-4
0.92933	-4
0.93300	-4
0.93667	-4
0.94033	-4
0.94400	-4
0.94767	-3
0.95133	-3
0.95500	-3
0.95867	-3
0.96233	-3
0.96600	-2
0.96967	-2
0.97333	-2
0.97700	-2
0.98067	-2
0.98433	-2
0.98800	-2
0.99167	-2
0.99533	-1
0.99900	-1
1.00267	-1
1.00633	-1
1.01000	-1
1.01367	-1
1.01733	-1
1.02100	-1
1.02467	-1
1.02833	-1
1.03200	-1
1.03567	-1
1.03933	-0
1.04300	-0
1.04667	-0
1.05033	0
1.05400	0
1.05767	0
1.06133	0
1.06500	0
1.06867	0
1.07233	0
1.07600	0
1.07967	0
1.08333	0
1.08700	1
1.09067	0
1.09433	0
1.09800	-0
1.10167	-0
1.10533	-0
1.10900	-1
1.11267	-0
1.11633	-0
1.12000	-0
1.12367	-0
1.12733	-0
1.13100	-1
1.13467	-1
1.13833	-1
1.14200	-1
1.14567	-1
1.14933	-2
1.15300	-2
1.15667	-2
1.16033	-3
1.16400	-3
1.16767	-3
1.17133	-3
1.17500	-2
1.17867	-2
1.18233	-2
1.18600	-2
1.18967	-2
1.19333	-2
1.19700	-2
1.20067	-2
1.20433	-2
1.20800	-2
1.21167	-2
1.21533	-2
1.21900	-2
1.22267	-2
1.22633	-2
1.23000	-2
1.23367	-2
1.23733	-2
1.24100	-2
1.24467	-3
1.24833	-3
1.25200	-3
1.25567	-3
1.25933	-3
1.26300	-3
1.26667	-2
1.27033	-2
1.27400	-2
1.27767	-3
1.28133	-3
1.28500	-3
1.28867	-2
1.29233	-2
1.29600	-2
1.29967	-2
1.30333	-2
1.30700	-2
1.31067	-2
1.31433	-2
1.31800	-3
1.32167	-2
1.32533	-2
1.32900	-2
1.33267	-2
1.33633	-2
1.34000	-2
1.34367	-3
1.34733	-3
1.35100	-3
1.35467	-3
1.35833	-3
1.36200	-3
1.36567	-3
1.36933	-3
1.37300	-3
1.37667	-2
1.38033	-2
1.38400	-2
1.38767	-2
1.39133	-2
1.39500	-3
1.39867	-3
1.40233	-3
1.40600	-3
1.40967	-3
1.41333	-3
1.41700	-3
1.42067	-3
1.42433	-2
1.42800	-2
1.43167	-2
1.43533	-2
1.43900	-2
1.44267	-2
1.44633	-3
1.45000	-3
1.45367	-4
1.45733	-4
1.46100	-4
1.46467	-4
1.46833	-4
1.47200	-4
1.47567	-4
1.47933	-3
1.48300	-3
1.48667	-3
1.49033	-3
1.49400	-3
1.49767	-3
1.50133	-3
1.50500	-3
1.50867	-3
1.51233	-3
1.51600	-3
1.51967	-3
1.52333	-2
1.52700	-2
1.53067	-2
1.53433	-2
1.53800	-2
1.54167	-2
1.54533	-2
1.54900	-2
1.55267	-2
1.55633	-2
1.56000	-2
1.56367	-2
1.56733	-3
1.57100	-3
1.57467	-3
1.57833	-3
1.58200	-3
1.58567	-3
1.58933	-3
1.59300	-3
1.59667	-4
1.60033	-4
1.60400	-5
1.60767	-7
1.61133	-9
1.61500	-10
1.61867	-13
1.62233	-15
1.62600	-18
1.62967	-21
1.63333	-24
1.63700	-27
1.64067	-31
1.64433	-34
1.64800	-38
1.65167	-41
1.65533	-45
1.65900	-48
1.66267	-52
1.66633	-57
1.67000	-62
1.67367	-67
1.67733	-73
1.68100	-78
1.68467	-83
1.68833	-88
1.69200	-92
1.69567	-96
1.69933	-99
1.70300	-101
1.70667	-104
1.71033	-105
1.71400	-107
1.71767	-107
1.72133	-108
1.72500	-108
1.72867	-109
1.73233	-109
1.73600	-108
1.73967	-108
1.74333	-107
1.74700	-107
1.75067	-106
1.75433	-106
1.75800	-105
1.76167	-105
1.76533	-106
1.76900	-107
1.77267	-108
1.77633	-110
1.78000	-111
1.78367	-112
1.78733	-113
1.79100	-114
1.79467	-115
1.79833	-116
1.80200	-116
1.80567	-117
1.80933	-117
1.81300	-117
1.81667	-117
1.82033	-116
1.82400	-116
1.82767	-114
1.83133	-114
1.83500	-113
1.83867	-112
1.84233	-113
1.84600	-113
1.84967	-113
1.85333	-113
1.85700	-113
1.86067	-113
1.86433	-113
1.86800	-113
1.87167	-113
1.87533	-113
1.87900	-113
1.88267	-113
1.88633	-113
1.89000	-114
1.89367	-114
1.89733	-114
1.90100	-114
1.90467	-114
1.90833	-113
1.91200	-113
1.91567	-113
1.91933	-113
1.92300	-113
1.92667	-113
1.93033	-113
1.93400	-113
1.93767	-112
1.94133	-112
1.94500	-111
1.94867	-111
1.95233	-111
1.95600	-111
1.95967	-110
1.96333	-110
1.96700	-110
1.97067	-109
1.97433	-109
1.97800	-108
1.98167	-108
1.98533	-108
1.98900	-108
1.99267	-108
1.99633	-108
2.00000	-108
2.00367	-108
2.00733	-108
2.01100	-108
2.01467	-108
2.01833	-107
2.02200	-107
2.02567	-106
2.02933	-105
2.03300	-104
2.03667	-103
2.04033	-102
2.04400	-102
2.04767	-101
2.05133	-101
2.05500	-100
2.05867	-100
2.06233	-99
2.06600	-99
2.06967	-99
2.07333	-98
2.07700	-98
2.08067	-98
2.08433	-98
2.08800	-98
2.09167	-98
2.09533	-98
2.09900	-98
2.10267	-98
2.10633	-97
2.11000	-96
2.11367	-95
2.11733	-95
2.12100	-94
2.12467	-94
2.12833	-94
2.13200	-94
2.13567	-94
2.13933	-94
2.14300	-94
2.14667	-94
2.15033	-93
2.15400	-93
2.15767	-92
2.16133	-91
2.16500	-91
2.16867	-90
2.17233	-90
2.17600	-90
2.17967	-90
2.18333	-90
2.18700	-90
2.19067	-91
2.19433	-91
2.19800	-91
2.20167	-91
2.20533	-91
2.20900	-91
2.21267	-90
2.21633	-90
2.22000	-89
2.22367	-89
2.22733	-88
2.23100	-88
2.23467	-88
2.23833	-88
2.24200	-88
2.24567	-88
2.24933	-88
2.25300	-88
2.25667	-87
2.26033	-87
2.26400	-86
2.26767	-85
2.27133	-85
2.27500	-85
2.27867	-84
2.28233	-84
2.28600	-84
2.28967	-84
2.29333	-85
2.29700	-85
2.30067	-85
2.30433	-84
2.30800	-84
2.31167	-84
2.31533	-83
2.31900	-83
2.32267	-83
2.32633	-82
2.33000	-81
2.33367	-80
2.33733	-78
2.34100	-77
2.34467	-76
2.34833	-76
2.35200	-75
2.35567	-75
2.35933	-75
2.36300	-75
2.36667	-74
2.37033	-73
2.37400	-71
2.37767	-69
2.38133	-66
2.38500	-62
2.38867	-58
2.39233	-54
2.39600	-50
2.39967	-45
2.40333	-40
2.40700	-35
2.41067	-30
2.41433	-26
2.41800	-22
2.42167	-19
2.42533	-17
2.42900	-15
2.43267	-13
2.43633	-12
2.44000	-11
2.44367	-9
2.44733	-8
2.45100	-8
2.45467	-7
2.45833	-7
2.46200	-6
2.46567	-6
2.46933	-5
2.47300	-4
2.47667	-3
2.48033	-1
2.48400	0
2.48767	2
2.49133	3
2.49500	4
2.49867	5
2.50233	5
2.50600	5
2.50967	6
2.51333	7
2.51700	7
2.52067	8
2.52433	9
2.52800	10
2.53167	11
2.53533	11
2.53900	11
2.54267	11
2.54633	12
2.55000	11
2.55367	11
2.55733	11
2.56100	12
2.56467	13
2.56833	13
2.57200	14
2.57567	15
2.57933	16
2.58300	16
2.58667	16
2.59033	16
2.59400	16
2.59767	16
2.60133	16
2.60500	16
2.60867	16
2.61233	16
2.61600	16
2.61967	16
2.62333	16
2.62700	17
2.63067	17
2.63433	17
2.63800	17
2.64167	17
2.64533	17
2.64900	17
2.65267	18
2.65633	18
2.66000	18
2.66367	19
2.66733	19
2.67100	19
2.67467	19
2.67833	19
2.68200	19
2.68567	19
2.68933	19
2.69300	19
2.69667	19
2.70033	20
2.70400	20
2.70767	21
2.71133	21
2.71500	22
2.71867	23
2.72233	24
2.72600	24
2.72967	25
2.73333	26
2.73700	27
2.74067	27
2.74433	28
2.74800	28
2.75167	28
2.75533	28
2.75900	27
2.76267	27
2.76633	26
2.77000	26
2.77367	26
2.77733	25
2.78100	25
2.78467	25
2.78833	25
2.79200	25
2.79567	24
2.79933	24
2.80300	24
2.80667	24
2.81033	24
2.81400	25
2.81767	25
2.82133	25
2.82500	25
2.82867	25
2.83233	26
2.83600	26
2.83967	25
2.84333	24
2.84700	22
2.85067	19
2.85433	13
2.85800	5
2.86167	-7
2.86533	-23
2.86900	-43
2.87267	-67
2.87633	-96
2.88000	-130
2.88367	-168
2.88733	-209
2.89100	-254
2.89467	-302
2.89833	-352
2.90200	-405
2.90567	-459
2.90933	-515
2.91300	-571
2.91667	-626
2.92033	-682
2.92400	-737
2.92767	-790
2.93133	-842
2.93500	-894
2.93867	-952
2.94233	-1011
2.94600	-1063
2.94967	-1097
2.95333	-1106
2.95700	-1090
2.96067	-1050
2.96433	-992
2.96800	-921
2.97167	-843
2.97533	-762
2.97900	-682
2.98267	-605
2.98633	-532
2.99000	-465
2.99367	-405
2.99733	-350
3.00100	-302
3.00467	-259
3.00833	-221
3.01200	-188
3.01567	-160
3.01933	-135
3.02300	-114
3.02667	-95
3.03033	-80
3.03400	-66
3.03767	-54
3.04133	-44
3.04500	-36
3.04867	-28
3.05233	-22
3.05600	-17
3.05967	-13
3.06333	-9
3.06700	-6
3.07067	-3
3.07433	-0
3.07800	2
3.08167	4
3.08533	5
3.08900	7
3.09267	8
3.09633	9
3.10000	10
3.10367	11
3.10733	12
3.11100	13
3.11467	14
3.11833	15
3.12200	15
3.12567	16
3.12933	16
3.13300	17
3.13667	17
3.14033	18
3.14400	18
3.14767	18
3.15133	19
3.15500	19
3.15867	20
3.16233	20
3.16600	20
3.16967	20
3.17333	20
3.17700	20
3.18067	20
3.18433	20
3.18800	20
3.19167	20
3.19533	20
3.19900	20
3.20267	20
3.20633	20
3.21000	20
3.21367	20
3.21733	20
3.22100	20
3.22467	20
3.22833	20
3.23200	20
3.23567	20
3.23933	20
3.24300	20
3.24667	21
3.25033	21
3.25400	21
3.25767	22
3.26133	22
3.26500	22
3.26867	22
3.27233	22
3.27600	23
3.27967	23
3.28333	23
3.28700	23
3.29067	23
3.29433	23
3.29800	24
3.30167	24
3.30533	24
3.30900	24
3.31267	24
3.31633	24
3.32000	24
3.32367	25
3.32733	25
3.33100	25
3.33467	25
3.33833	25
3.34200	25
3.34567	25
3.34933	25
3.35300	25
3.35667	25
3.36033	26
3.36400	26
3.36767	26
3.37133	26
3.37500	26
3.37867	26
3.38233	26
3.38600	27
3.38967	27
3.39333	27
3.39700	28
3.40067	28
3.40433	28
3.40800	28
3.41167	28
3.41533	28
3.41900	28
3.42267	28
3.42633	28
3.43000	27
3.43367	27
3.43733	27
3.44100	27
3.44467	27
3.44833	26
3.45200	26
3.45567	26
3.45933	26
3.46300	26
3.46667	26
3.47033	26
3.47400	25
3.47767	25
3.48133	25
3.48500	25
3.48867	26
3.49233	26
3.49600	27
3.49967	27
3.50333	27
3.50700	27
3.51067	27
3.51433	27
3.51800	28
3.52167	27
3.52533	27
3.52900	27
3.53267	27
3.53633	27
3.54000	27
3.54367	27
3.54733	27
3.55100	27
3.55467	27
3.55833	27
3.56200	27
3.56567	27
3.56933	27
3.57300	27
3.57667	27
3.58033	27
3.58400	27
3.58767	27
3.59133	26
3.59500	26
3.59867	26
3.60233	26
3.60600	26
3.60967	26
3.61333	27
3.61700	27
3.62067	27
3.62433	27
3.62800	27
3.63167	27
3.63533	27
3.63900	26
3.64267	26
3.64633	26
3.65000	26
3.65367	26
3.65733	26
3.66100	27
3.66467	27
3.66833	27
3.67200	27
3.67567	27
3.67933	28
3.68300	28
3.68667	28
3.69033	29
3.69400	29
3.69767	29
3.70133	29
3.70500	29
3.70867	29
3.71233	29
3.71600	29
3.71967	29
3.72333	29
3.72700	29
3.73067	29
3.73433	28
3.73800	28
3.74167	28
3.74533	27
3.74900	27
3.75267	27
3.75633	27
3.76000	27
3.76367	27
3.76733	27
3.77100	27
3.77467	27
3.77833	27
3.78200	26
3.78567	26
3.78933	26
3.79300	25
3.79667	25
3.80033	25
3.80400	25
3.80767	25
3.81133	25
3.81500	25
3.81867	25
3.82233	26
3.82600	26
3.82967	26
3.83333	27
3.83700	27
3.84067	27
3.84433	27
3.84800	27
3.85167	27
3.85533	27
3.85900	27
3.86267	27
3.86633	27
3.87000	27
3.87367	26
3.87733	26
3.88100	26
3.88467	26
3.88833	26
3.89200	26
3.89567	26
3.89933	26
3.90300	26
3.90667	26
3.91033	26
3.91400	26
3.91767	26
3.92133	26
3.92500	26
3.92867	26
3.93233	26
3.93600	26
3.93967	26
3.94333	26
3.94700	26
3.95067	26
3.95433	26
3.95800	27
3.96167	27
3.96533	27
3.96900	28
3.97267	28
3.97633	28
3.98000	28
3.98367	28
3.98733	28
3.99100	28
3.99467	27
3.99833	27

[Chromatogram (Ch3)]
Interval(msec)	220
# of Points	1091
Start Time(min)	0.002
End Time(min)	3.998
R.Time (min)	Intensity
0.00167	-0
0.00533	-1
0.00900	-1
0.01267	-4
0.01633	-5
0.02000	-3
0.02367	0
0.02733	2
0.03100	1
0.03467	-2
0.03833	-3
0.04200	-3
0.04567	-3
0.04933	-4
0.05300	-3
0.05667	-2
0.06033	-3
0.06400	-5
0.06767	-8
0.07133	-9
0.07500	-10
0.07867	-9
0.08233	-8
0.08600	-9
0.08967	-9
0.09333	-9
0.09700	-8
0.10067	-6
0.10433	-4
0.10800	-2
0.11167	-2
0.11533	-3
0.11900	-4
0.12267	-5
0.12633	-5
0.13000	-2
0.13367	-1
0.13733	-2
0.14100	-2
0.14467	0
0.14833	1
0.15200	2
0.15567	3
0.15933	4
0.16300	4
0.16667	3
0.17033	2
0.17400	-1
0.17767	-3
0.18133	-4
0.18500	-5
0.18867	-5
0.19233	-4
0.19600	-6
0.19967	-8
0.20333	-9
0.20700	-8
0.21067	-7
0.21433	-7
0.21800	-6
0.22167	-3
0.22533	-2
0.22900	-3
0.23267	-3
0.23633	-1
0.24000	-0
0.24367	-0
0.24733	-1
0.25100	-3
0.25467	-4
0.25833	-3
0.26200	-3
0.26567	-6
0.26933	-7
0.27300	-5
0.27667	-6
0.28033	-8
0.28400	-9
0.28767	-9
0.29133	-8
0.29500	-8
0.29867	-9
0.30233	-11
0.30600	-12
0.30967	-13
0.31333	-15
0.31700	-16
0.32067	-16
0.32433	-16
0.32800	-14
0.33167	-12
0.33533	-10
0.33900	-7
0.34267	-6
0.34633	-6
0.35000	-7
0.35367	-8
0.35733	-9
0.36100	-7
0.36467	-7
0.36833	-7
0.37200	-9
0.37567	-9
0.37933	-9
0.38300	-9
0.38667	-11
0.39033	-12
0.39400	-11
0.39767	-7
0.40133	-6
0.40500	-6
0.40867	-6
0.41233	-5
0.41600	-6
0.41967	-5
0.42333	-3
0.42700	-2
0.43067	-1
0.43433	-2
0.43800	-2
0.44167	-3
0.44533	-5
0.44900	-6
0.45267	-7
0.45633	-7
0.46000	-8
0.46367	-7
0.46733	-7
0.47100	-5
0.47467	-5
0.47833	-4
0.48200	-4
0.48567	-6
0.48933	-6
0.49300	-6
0.49667	-5
0.50033	-4
0.50400	-4
0.50767	-2
0.51133	-1
0.51500	-1
0.51867	-3
0.52233	-4
0.52600	-5
0.52967	-3
0.53333	-3
0.53700	-2
0.54067	-1
0.54433	-0
0.54800	2
0.55167	2
0.55533	1
0.55900	2
0.56267	1
0.56633	-1
0.57000	-0
0.57367	-0
0.57733	-0
0.58100	0
0.58467	2
0.58833	3
0.59200	2
0.59567	1
0.59933	0
0.60300	-1
0.60667	0
0.61033	0
0.61400	2
0.61767	2
0.62133	2
0.62500	1
0.62867	2
0.63233	4
0.63600	5
0.63967	4
0.64333	4
0.64700	4
0.65067	4
0.65433	3
0.65800	2
0.66167	4
0.66533	6
0.66900	7
0.67267	7
0.67633	5
0.68000	5
0.68367	4
0.68733	4
0.69100	3
0.69467	3
0.69833	5
0.70200	6
0.70567	5
0.70933	5
0.71300	7
0.71667	7
0.72033	7
0.72400	6
0.72767	5
0.73133	5
0.73500	5
0.73867	6
0.74233	7
0.74600	8
0.74967	9
0.75333	8
0.75700	6
0.76067	6
0.76433	8
0.76800	8
0.77167	8
0.77533	8
0.77900	8
0.78267	9
0.78633	8
0.79000	8
0.79367	8
0.79733	9
0.80100	9
0.80467	9
0.80833	8
0.81200	6
0.81567	5
0.81933	4
0.82300	5
0.82667	4
0.83033	3
0.83400	2
0.83767	1
0.84133	0
0.84500	1
0.84867	3
0.85233	5
0.85600	7
0.85967	10
0.86333	11
0.86700	9
0.87067	6
0.87433	3
0.87800	2
0.88167	1
0.88533	1
0.88900	2
0.89267	5
0.89633	7
0.90000	9
0.90367	10
0.90733	11
0.91100	10
0.91467	9
0.91833	8
0.92200	7
0.92567	8
0.92933	9
0.93300	9
0.93667	10
0.94033	9
0.94400	10
0.94767	12
0.95133	13
0.95500	13
0.95867	12
0.96233	12
0.96600	12
0.96967	10
0.97333	9
0.97700	10
0.98067	11
0.98433	13
0.98800	14
0.99167	15
0.99533	14
0.99900	14
1.00267	14
1.00633	14
1.01000	14
1.01367	13
1.01733	12
1.02100	12
1.02467	13
1.02833	14
1.03200	14
1.03567	15
1.03933	16
1.04300	15
1.04667	14
1.05033	14
1.05400	15
1.05767	16
1.06133	15
1.06500	13
1.06867	13
1.07233	13
1.07600	13
1.07967	15
1.08333	17
1.08700	17
1.09067	18
1.09433	19
1.09800	20
1.10167	21
1.10533	22
1.10900	22
1.11267	24
1.11633	23
1.12000	21
1.12367	20
1.12733	20
1.13100	20
1.13467	21
1.13833	22
1.14200	23
1.14567	23
1.14933	22
1.15300	21
1.15667	21
1.16033	24
1.16400	25
1.16767	25
1.17133	23
1.17500	21
1.17867	21
1.18233	21
1.18600	22
1.18967	23
1.19333	24
1.19700	25
1.20067	25
1.20433	24
1.20800	22
1.21167	20
1.21533	21
1.21900	23
1.22267	24
1.22633	24
1.23000	23
1.23367	20
1.23733	17
1.24100	17
1.24467	19
1.24833	20
1.25200	22
1.25567	22
1.25933	20
1.26300	20
1.26667	21
1.27033	20
1.27400	19
1.27767	21
1.28133	23
1.28500	22
1.28867	21
1.29233	20
1.29600	19
1.29967	17
1.30333	16
1.30700	17
1.31067	17
1.31433	18
1.31800	20
1.32167	21
1.32533	23
1.32900	22
1.33267	21
1.33633	20
1.34000	20
1.34367	20
1.34733	20
1.35100	20
1.35467	22
1.35833	22
1.36200	20
1.36567	20
1.36933	20
1.37300	22
1.37667	24
1.38033	26
1.38400	27
1.38767	25
1.39133	24
1.39500	24
1.39867	22
1.40233	18
1.40600	18
1.40967	19
1.41333	20
1.41700	19
1.42067	17
1.42433	16
1.42800	16
1.43167	18
1.43533	18
1.43900	17
1.44267	17
1.44633	16
1.45000	16
1.45367	17
1.45733	17
1.46100	15
1.46467	16
1.46833	17
1.47200	18
1.47567	17
1.47933	18
1.48300	18
1.48667	17
1.49033	15
1.49400	14
1.49767	15
1.50133	15
1.50500	16
1.50867	17
1.51233	16
1.51600	13
1.51967	12
1.52333	13
1.52700	13
1.53067	16
1.53433	18
1.53800	18
1.54167	18
1.54533	17
1.54900	16
1.55267	18
1.55633	19
1.56000	20
1.56367	21
1.56733	22
1.57100	25
1.57467	25
1.57833	26
1.58200	26
1.58567	25
1.58933	23
1.59300	22
1.59667	24
1.60033	25
1.60400	26
1.60767	24
1.61133	22
1.61500	21
1.61867	20
1.62233	21
1.62600	21
1.62967	21
1.63333	22
1.63700	22
1.64067	21
1.64433	20
1.64800	21
1.65167	23
1.65533	24
1.65900	24
1.66267	23
1.66633	25
1.67000	27
1.67367	27
1.67733	27
1.68100	27
1.68467	26
1.68833	27
1.69200	27
1.69567	27
1.69933	27
1.70300	27
1.70667	27
1.71033	27
1.71400	29
1.71767	31
1.72133	32
1.72500	33
1.72867	34
1.73233	36
1.73600	36
1.73967	34
1.74333	32
1.74700	32
1.75067	33
1.75433	34
1.75800	36
1.76167	39
1.76533	42
1.76900	44
1.77267	44
1.77633	43
1.78000	44
1.78367	45
1.78733	46
1.79100	47
1.79467	47
1.79833	48
1.80200	49
1.80567	50
1.80933	51
1.81300	53
1.81667	54
1.82033	54
1.82400	55
1.82767	56
1.83133	57
1.83500	55
1.83867	53
1.84233	52
1.84600	51
1.84967	53
1.85333	56
1.85700	60
1.86067	63
1.86433	65
1.86800	65
1.87167	64
1.87533	62
1.87900	62
1.88267	65
1.88633	66
1.89000	69
1.89367	70
1.89733	69
1.90100	68
1.90467	68
1.90833	66
1.91200	66
1.91567	66
1.91933	66
1.92300	68
1.92667	69
1.93033	67
1.93400	67
1.93767	68
1.94133	70
1.94500	71
1.94867	72
1.95233	73
1.95600	75
1.95967	77
1.96333	79
1.96700	80
1.97067	79
1.97433	81
1.97800	83
1.98167	86
1.98533	89
1.98900	92
1.99267	94
1.99633	94
2.00000	95
2.00367	97
2.00733	99
2.01100	100
2.01467	101
2.01833	100
2.02200	100
2.02567	101
2.02933	103
2.03300	106
2.03667	109
2.04033	110
2.04400	110
2.04767	108
2.05133	111
2.05500	113
2.05867	114
2.06233	116
2.06600	117
2.06967	119
2.07333	122
2.07700	125
2.08067	126
2.08433	125
2.08800	127
2.09167	129
2.09533	131
2.09900	133
2.10267	137
2.10633	138
2.11000	138
2.11367	140
2.11733	141
2.12100	141
2.12467	142
2.12833	142
2.13200	142
2.13567	143
2.13933	146
2.14300	147
2.14667	149
2.15033	150
2.15400	151
2.15767	152
2.16133	154
2.16500	157
2.16867	160
2.17233	160
2.17600	157
2.17967	157
2.18333	157
2.18700	159
2.19067	163
2.19433	165
2.19800	167
2.20167	169
2.20533	168
2.20900	166
2.21267	163
2.21633	164
2.22000	166
2.22367	167
2.22733	167
2.23100	166
2.23467	166
2.23833	167
2.24200	170
2.24567	172
2.24933	173
2.25300	174
2.25667	175
2.26033	176
2.26400	179
2.26767	179
2.27133	179
2.27500	180
2.27867	181
2.28233	182
2.28600	185
2.28967	186
2.29333	184
2.29700	184
2.30067	184
2.30433	183
2.30800	184
2.31167	186
2.31533	187
2.31900	188
2.32267	189
2.32633	190
2.33000	189
2.33367	188
2.33733	190
2.34100	192
2.34467	196
2.34833	198
2.35200	199
2.35567	198
2.35933	199
2.36300	202
2.36667	203
2.37033	203
2.37400	205
2.37767	205
2.38133	204
2.38500	202
2.38867	202
2.39233	206
2.39600	207
2.39967	209
2.40333	212
2.40700	215
2.41067	217
2.41433	217
2.41800	219
2.42167	220
2.42533	221
2.42900	221
2.43267	223
2.43633	223
2.44000	225
2.44367	284
2.44733	440
2.45100	609
2.45467	747
2.45833	822
2.46200	821
2.46567	777
2.46933	724
2.47300	683
2.47667	656
2.48033	631
2.48400	594
2.48767	546
2.49133	492
2.49500	444
2.49867	405
2.50233	378
2.50600	361
2.50967	355
2.51333	363
2.51700	381
2.52067	404
2.52433	424
2.52800	435
2.53167	431
2.53533	415
2.53900	386
2.54267	351
2.54633	314
2.55000	280
2.55367	252
2.55733	229
2.56100	211
2.56467	199
2.56833	191
2.57200	186
2.57567	179
2.57933	177
2.58300	177
2.58667	179
2.59033	182
2.59400	185
2.59767	186
2.60133	187
2.60500	187
2.60867	182
2.61233	172
2.61600	162
2.61967	152
2.62333	144
2.62700	137
2.63067	129
2.63433	121
2.63800	114
2.64167	104
2.64533	93
2.64900	82
2.65267	70
2.65633	59
2.66000	49
2.66367	38
2.66733	28
2.67100	19
2.67467	12
2.67833	6
2.68200	1
2.68567	-1
2.68933	-1
2.69300	-2
2.69667	-4
2.70033	-5
2.70400	-2
2.70767	1
2.71133	5
2.71500	10
2.71867	15
2.72233	18
2.72600	23
2.72967	28
2.73333	33
2.73700	37
2.74067	39
2.74433	44
2.74800	49
2.75167	53
2.75533	58
2.75900	61
2.76267	64
2.76633	66
2.77000	68
2.77367	71
2.77733	75
2.78100	79
2.78467	82
2.78833	84
2.79200	86
2.79567	90
2.79933	95
2.80300	101
2.80667	108
2.81033	117
2.81400	126
2.81767	136
2.82133	147
2.82500	167
2.82867	203
2.83233	268
2.83600	385
2.83967	577
2.84333	858
2.84700	1236
2.85067	1708
2.85433	2255
2.85800	2839
2.86167	3413
2.86533	3929
2.86900	4348
2.87267	4640
2.87633	4793
2.88000	4807
2.88367	4701
2.88733	4498
2.89100	4227
2.89467	3912
2.89833	3573
2.90200	3231
2.90567	2901
2.90933	2589
2.91300	2301
2.91667	2039
2.92033	1803
2.92400	1589
2.92767	1398
2.93133	1230
2.93500	1085
2.93867	958
2.94233	847
2.94600	749
2.94967	663
2.95333	589
2.95700	527
2.96067	472
2.96433	423
2.96800	382
2.97167	347
2.97533	317
2.97900	291
2.98267	265
2.98633	241
2.99000	221
2.99367	202
2.99733	189
3.00100	177
3.00467	166
3.00833	156
3.01200	148
3.01567	143
3.01933	138
3.02300	134
3.02667	131
3.03033	127
3.03400	122
3.03767	119
3.04133	117
3.04500	116
3.04867	115
3.05233	114
3.05600	113
3.05967	114
3.06333	115
3.06700	112
3.07067	109
3.07433	107
3.07800	105
3.08167	103
3.08533	103
3.08900	103
3.09267	104
3.09633	105
3.10000	107
3.10367	108
3.10733	109
3.11100	110
3.11467	109
3.11833	107
3.12200	106
3.12567	108
3.12933	110
3.13300	113
3.13667	114
3.14033	112
3.14400	110
3.14767	109
3.15133	110
3.15500	110
3.15867	111
3.16233	112
3.16600	114
3.16967	115
3.17333	115
3.17700	117
3.18067	119
3.18433	121
3.18800	124
3.19167	126
3.19533	127
3.19900	129
3.20267	131
3.20633	133
3.21000	134
3.21367	134
3.21733	135
3.22100	136
3.22467	138
3.22833	141
3.23200	145
3.23567	147
3.23933	149
3.24300	150
3.24667	152
3.25033	155
3.25400	158
3.25767	161
3.26133	164
3.26500	166
3.26867	168
3.27233	170
3.27600	172
3.27967	174
3.28333	176
3.28700	177
3.29067	177
3.29433	176
3.29800	177
3.30167	180
3.30533	183
3.30900	186
3.31267	188
3.31633	189
3.32000	192
3.32367	196
3.32733	199
3.33100	197
3.33467	198
3.33833	200
3.34200	202
3.34567	203
3.34933	205
3.35300	206
3.35667	209
3.36033	212
3.36400	215
3.36767	219
3.37133	223
3.37500	226
3.37867	227
3.38233	227
3.38600	226
3.38967	225
3.39333	226
3.39700	226
3.40067	228
3.40433	231
3.40800	232
3.41167	232
3.41533	232
3.41900	233
3.42267	236
3.42633	239
3.43000	240
3.43367	241
3.43733	243
3.44100	245
3.44467	246
3.44833	248
3.45200	249
3.45567	250
3.45933	250
3.46300	249
3.46667	251
3.47033	252
3.47400	252
3.47767	251
3.48133	250
3.48500	252
3.48867	253
3.49233	255
3.49600	254
3.49967	253
3.50333	253
3.50700	254
3.51067	254
3.51433	255
3.51800	255
3.52167	256
3.52533	256
3.52900	257
3.53267	257
3.53633	257
3.54000	258
3.54367	257
3.54733	255
3.55100	254
3.55467	252
3.55833	251
3.56200	234
3.56567	207
3.56933	187
3.57300	175
3.57667	168
3.58033	164
3.58400	163
3.58767	167
3.59133	177
3.59500	192
3.59867	209
3.60233	229
3.60600	248
3.60967	266
3.61333	285
3.61700	304
3.62067	321
3.62433	337
3.62800	354
3.63167	373
3.63533	391
3.63900	409
3.64267	427
3.64633	443
3.65000	458
3.65367	471
3.65733	483
3.66100	493
3.66467	501
3.66833	507
3.67200	514
3.67567	521
3.67933	527
3.68300	532
3.68667	536
3.69033	539
3.69400	543
3.69767	546
3.70133	549
3.70500	553
3.70867	556
3.71233	558
3.71600	559
3.71967	559
3.72333	559
3.72700	560
3.73067	562
3.73433	563
3.73800	565
3.74167	567
3.74533	568
3.74900	569
3.75267	571
3.75633	572
3.76000	573
3.76367	574
3.76733	574
3.77100	575
3.77467	574
3.77833	574
3.78200	574
3.78567	574
3.78933	574
3.79300	572
3.79667	571
3.80033	573
3.80400	573
3.80767	573
3.81133	573
3.81500	573
3.81867	575
3.82233	575
3.82600	574
3.82967	575
3.83333	574
3.83700	572
3.84067	570
3.84433	570
3.84800	568
3.85167	569
3.85533	571
3.85900	571
3.86267	570
3.86633	568
3.87000	567
3.87367	566
3.87733	566
3.88100	567
3.88467	570
3.88833	571
3.89200	570
3.89567	568
3.89933	567
3.90300	566
3.90667	566
3.91033	564
3.91400	563
3.91767	564
3.92133	562
3.92500	560
3.92867	557
3.93233	555
3.93600	553
3.93967	554
3.94333	554
3.94700	553
3.95067	554
3.95433	552
3.95800	549
3.96167	546
3.96533	544
3.96900	543
3.97267	542
3.97633	539
3.98000	539
3.98367	536
3.98733	535
3.99100	535
3.99467	533
3.99833	528

[Status Trace (Column Oven Temperature)]
Interval(msec)	1000
# of Points	240
Start Time(min)	0.003
End Time(min)	3.986
Intensity Units	
Intensity Multiplier	1
R.Time (min)	Intensity
0.00280	35.06
0.01947	35.05
0.03613	35.04
0.05280	35.04
0.06947	35.04
0.08613	35.03
0.10280	35.03
0.11947	35.03
0.13613	35.03
0.15280	35.03
0.16947	35.04
0.18613	35.04
0.20280	35.03
0.21947	35.02
0.23613	35.02
0.25280	35.02
0.26947	35.02
0.28613	35.02
0.30280	35.02
0.31947	35.01
0.33613	35.01
0.35280	35.02
0.36947	35.02
0.38613	35.02
0.40280	35.02
0.41947	35.02
0.43613	35.02
0.45280	35.02
0.46947	35.03
0.48613	35.02
0.50280	35.02
0.51947	35.02
0.53613	35.01
0.55280	35.01
0.56947	35.02
0.58613	35.02
0.60280	35.02
0.61947	35.02
0.63613	35.02
0.65280	35.01
0.66947	35.00
0.68613	35.00
0.70280	34.99
0.71947	34.98
0.73613	34.98
0.75280	34.98
0.76947	34.99
0.78613	34.98
0.80280	34.98
0.81947	34.97
0.83613	34.97
0.85280	34.97
0.86947	34.98
0.88613	34.99
0.90280	35.01
0.91947	35.01
0.93613	35.03
0.95280	35.03
0.96947	35.03
0.98613	35.02
1.00280	35.01
1.01947	35.02
1.03613	35.00
1.05280	35.00
1.06947	35.00
1.08613	34.99
1.10280	34.99
1.11947	34.98
1.13613	34.99
1.15280	34.99
1.16947	34.99
1.18613	35.00
1.20280	34.99
1.21947	34.99
1.23613	35.01
1.25280	35.00
1.26947	34.99
1.28613	34.99
1.30280	34.99
1.31947	34.99
1.33613	34.99
1.35280	34.99
1.36947	34.99
1.38613	35.00
1.40280	35.01
1.41947	35.00
1.43613	34.99
1.45280	35.00
1.46947	34.99
1.48613	35.00
1.50280	35.00
1.51947	34.99
1.53613	35.00
1.55280	35.00
1.56947	34.99
1.58613	35.00
1.60280	35.04
1.61947	35.13
1.63613	35.30
1.65280	35.52
1.66947	35.84
1.68613	36.23
1.70280	36.59
1.71947	36.93
1.73613	37.25
1.75280	37.55
1.76947	37.89
1.78613	38.24
1.80280	38.58
1.81947	38.91
1.83613	39.23
1.85280	39.55
1.86947	39.88
1.88613	40.21
1.90280	40.55
1.91947	40.89
1.93613	41.21
1.95280	41.54
1.96947	41.86
1.98613	42.19
2.00280	42.53
2.01947	42.85
2.03613	43.16
2.05280	43.48
2.06947	43.80
2.08613	44.13
2.10280	44.43
2.11947	44.76
2.13613	45.09
2.15280	45.44
2.16947	45.73
2.18613	46.07
2.20280	46.40
2.21947	46.72
2.23613	47.06
2.25280	47.40
2.26947	47.71
2.28613	48.06
2.30280	48.40
2.31947	48.75
2.33613	49.04
2.35280	49.35
2.36947	49.62
2.38613	49.73
2.40280	49.74
2.41947	49.73
2.43613	49.74
2.45280	49.76
2.46947	49.77
2.48613	49.76
2.50280	49.78
2.51947	49.78
2.53613	49.80
2.55280	49.82
2.56947	49.80
2.58613	49.81
2.60280	49.82
2.61947	49.82
2.63613	49.83
2.65280	49.84
2.66947	49.84
2.68613	49.88
2.70280	49.89
2.71947	49.88
2.73613	49.85
2.75280	49.84
2.76947	49.86
2.78613	49.87
2.80280	49.88
2.81947	49.87
2.83613	49.88
2.85280	49.88
2.86947	49.89
2.88613	49.90
2.90280	49.91
2.91947	49.93
2.93613	49.95
2.95280	49.96
2.96947	49.99
2.98613	50.01
3.00280	50.02
3.01947	50.03
3.03613	50.03
3.05280	50.03
3.06947	50.05
3.08613	50.05
3.10280	50.05
3.11947	50.05
3.13613	50.04
3.15280	50.04
3.16947	50.04
3.18613	50.04
3.20280	50.05
3.21947	50.07
3.23613	50.08
3.25280	50.08
3.26947	50.09
3.28613	50.09
3.30280	50.09
3.31947	50.10
3.33613	50.10
3.35280	50.09
3.36947	50.09
3.38613	50.08
3.40280	50.07
3.41947	50.07
3.43613	50.06
3.45280	50.07
3.46947	50.07
3.48613	50.07
3.50280	50.07
3.51947	50.08
3.53613	50.08
3.55280	50.08
3.56947	50.09
3.58613	50.10
3.60280	50.10
3.61947	50.10
3.63613	50.10
3.65280	50.10
3.66947	50.08
3.68613	50.07
3.70280	50.05
3.71947	50.03
3.73613	50.03
3.75280	50.03
3.76947	50.03
3.78613	50.04
3.80280	50.05
3.81947	50.04
3.83613	50.03
3.85280	50.03
3.86947	50.03
3.88613	50.03
3.90280	50.03
3.91947	50.03
3.93613	50.03
3.95280	50.02
3.96947	50.02
3.98613	50.01

[Status Trace (Injection Unit Temperature)]
Interval(msec)	1000
# of Points	240
Start Time(min)	0.003
End Time(min)	3.986
Intensity Units	
Intensity Multiplier	1
R.Time (min)	Intensity
0.00280	99.98
0.01947	99.98
0.03613	99.98
0.05280	99.98
0.06947	99.98
0.08613	99.98
0.10280	99.98
0.11947	99.98
0.13613	99.98
0.15280	99.98
0.16947	99.98
0.18613	99.98
0.20280	99.98
0.21947	99.98
0.23613	99.98
0.25280	99.98
0.26947	99.98
0.28613	99.98
0.30280	99.99
0.31947	99.99
0.33613	99.98
0.35280	99.98
0.36947	99.98
0.38613	99.99
0.40280	99.98
0.41947	99.98
0.43613	99.98
0.45280	99.98
0.46947	99.98
0.48613	99.98
0.50280	99.98
0.51947	99.98
0.53613	99.99
0.55280	99.99
0.56947	99.98
0.58613	99.98
0.60280	99.98
0.61947	99.98
0.63613	99.98
0.65280	99.99
0.66947	99.98
0.68613	99.98
0.70280	99.98
0.71947	99.98
0.73613	99.98
0.75280	99.98
0.76947	99.99
0.78613	99.98
0.80280	99.98
0.81947	99.98
0.83613	99.98
0.85280	99.98
0.86947	99.98
0.88613	99.98
0.90280	99.98
0.91947	99.98
0.93613	99.98
0.95280	99.98
0.96947	99.98
0.98613	99.98
1.00280	99.98
1.01947	99.98
1.03613	99.98
1.05280	99.98
1.06947	99.98
1.08613	99.98
1.10280	99.98
1.11947	99.98
1.13613	99.99
1.15280	99.98
1.16947	99.98
1.18613	99.98
1.20280	99.98
1.21947	99.98
1.23613	99.98
1.25280	99.99
1.26947	99.98
1.28613	99.98
1.30280	99.99
1.31947	99.98
1.33613	99.98
1.35280	99.98
1.36947	99.98
1.38613	99.99
1.40280	99.98
1.41947	99.99
1.43613	99.99
1.45280	99.99
1.46947	99.99
1.48613	99.98
1.50280	99.98
1.51947	99.98
1.53613	99.99
1.55280	99.98
1.56947	99.99
1.58613	99.98
1.60280	99.98
1.61947	99.98
1.63613	99.98
1.65280	99.98
1.66947	99.98
1.68613	99.98
1.70280	99.98
1.71947	99.98
1.73613	99.98
1.75280	99.98
1.76947	99.98
1.78613	99.98
1.80280	99.98
1.81947	99.98
1.83613	99.98
1.85280	99.98
1.86947	99.98
1.88613	99.98
1.90280	99.98
1.91947	99.98
1.93613	99.98
1.95280	99.98
1.96947	99.97
1.98613	99.98
2.00280	99.97
2.01947	99.97
2.03613	99.98
2.05280	99.97
2.06947	99.97
2.08613	99.97
2.10280	99.97
2.11947	99.97
2.13613	99.97
2.15280	99.97
2.16947	99.97
2.18613	99.97
2.20280	99.97
2.21947	99.97
2.23613	99.97
2.25280	99.96
2.26947	99.97
2.28613	99.97
2.30280	99.96
2.31947	99.97
2.33613	99.96
2.35280	99.96
2.36947	99.97
2.38613	99.97
2.40280	99.96
2.41947	99.96
2.43613	99.97
2.45280	99.96
2.46947	99.97
2.48613	99.97
2.50280	99.97
2.51947	99.97
2.53613	99.97
2.55280	99.97
2.56947	99.97
2.58613	99.97
2.60280	99.98
2.61947	99.98
2.63613	99.97
2.65280	99.98
2.66947	99.98
2.68613	99.98
2.70280	99.98
2.71947	99.98
2.73613	99.98
2.75280	99.99
2.76947	99.99
2.78613	99.99
2.80280	99.99
2.81947	99.99
2.83613	99.99
2.85280	99.99
2.86947	99.99
2.88613	99.99
2.90280	100.00
2.91947	100.00
2.93613	100.00
2.95280	100.00
2.96947	100.01
2.98613	100.00
3.00280	100.00
3.01947	100.01
3.03613	100.00
3.05280	100.01
3.06947	100.01
3.08613	100.01
3.10280	100.01
3.11947	100.01
3.13613	100.01
3.15280	100.01
3.16947	100.02
3.18613	100.02
3.20280	100.02
3.21947	100.01
3.23613	100.02
3.25280	100.01
3.26947	100.02
3.28613	100.02
3.30280	100.02
3.31947	100.02
3.33613	100.02
3.35280	100.02
3.36947	100.02
3.38613	100.02
3.40280	100.02
3.41947	100.03
3.43613	100.02
3.45280	100.02
3.46947	100.02
3.48613	100.03
3.50280	100.03
3.51947	100.03
3.53613	100.03
3.55280	100.03
3.56947	100.03
3.58613	100.03
3.60280	100.03
3.61947	100.03
3.63613	100.03
3.65280	100.03
3.66947	100.03
3.68613	100.04
3.70280	100.04
3.71947	100.04
3.73613	100.03
3.75280	100.03
3.76947	100.04
3.78613	100.04
3.80280	100.04
3.81947	100.04
3.83613	100.04
3.85280	100.04
3.86947	100.03
3.88613	100.04
3.90280	100.04
3.91947	100.04
3.93613	100.04
3.95280	100.04
3.96947	100.04
3.98613	100.04

[Status Trace (Carrier Gas Pressure)]
Interval(msec)	1000
# of Points	240
Start Time(min)	0.003
End Time(min)	3.986
Intensity Units	
Intensity Multiplier	1
R.Time (min)	Intensity
0.00280	58.00
0.01947	56.13
0.03613	56.34
0.05280	58.64
0.06947	59.82
0.08613	58.28
0.10280	57.97
0.11947	58.01
0.13613	58.01
0.15280	58.01
0.16947	58.00
0.18613	58.00
0.20280	58.00
0.21947	58.00
0.23613	58.00
0.25280	58.00
0.26947	58.00
0.28613	58.00
0.30280	58.00
0.31947	58.00
0.33613	58.00
0.35280	58.00
0.36947	58.00
0.38613	58.00
0.40280	58.00
0.41947	58.00
0.43613	58.00
0.45280	58.00
0.46947	58.00
0.48613	58.00
0.50280	58.00
0.51947	58.00
0.53613	58.00
0.55280	58.00
0.56947	58.00
0.58613	58.00
0.60280	58.00
0.61947	58.00
0.63613	58.00
0.65280	58.00
0.66947	58.00
0.68613	58.00
0.70280	58.00
0.71947	58.00
0.73613	58.00
0.75280	58.00
0.76947	58.00
0.78613	58.00
0.80280	58.00
0.81947	58.00
0.83613	58.00
0.85280	58.00
0.86947	58.00
0.88613	58.00
0.90280	58.00
0.91947	58.00
0.93613	58.00
0.95280	58.00
0.96947	58.00
0.98613	58.00
1.00280	58.00
1.01947	58.00
1.03613	58.00
1.05280	58.00
1.06947	58.00
1.08613	58.00
1.10280	58.00
1.11947	58.00
1.13613	58.00
1.15280	58.00
1.16947	58.00
1.18613	58.00
1.20280	58.00
1.21947	58.00
1.23613	58.00
1.25280	58.00
1.26947	58.00
1.28613	58.00
1.30280	58.00
1.31947	58.00
1.33613	58.00
1.35280	58.00
1.36947	58.00
1.38613	58.00
1.40280	58.00
1.41947	58.00
1.43613	58.00
1.45280	58.00
1.46947	58.00
1.48613	58.00
1.50280	58.00
1.51947	58.00
1.53613	58.00
1.55280	58.00
1.56947	58.00
1.58613	58.00
1.60280	58.00
1.61947	58.00
1.63613	58.00
1.65280	58.00
1.66947	58.01
1.68613	58.01
1.70280	58.00
1.71947	58.00
1.73613	58.00
1.75280	58.00
1.76947	58.00
1.78613	58.00
1.80280	58.00
1.81947	58.00
1.83613	58.00
1.85280	58.00
1.86947	58.00
1.88613	58.00
1.90280	58.00
1.91947	58.00
1.93613	58.00
1.95280	58.00
1.96947	58.00
1.98613	58.00
2.00280	58.00
2.01947	58.00
2.03613	58.00
2.05280	58.00
2.06947	58.00
2.08613	58.00
2.10280	58.00
2.11947	58.00
2.13613	58.00
2.15280	58.00
2.16947	58.00
2.18613	58.00
2.20280	58.00
2.21947	58.00
2.23613	58.00
2.25280	58.00
2.26947	58.00
2.28613	58.00
2.30280	58.00
2.31947	58.00
2.33613	58.00
2.35280	58.00
2.36947	58.00
2.38613	57.99
2.40280	57.99
2.41947	58.00
2.43613	58.00
2.45280	58.00
2.46947	58.00
2.48613	58.00
2.50280	57.96
2.51947	58.00
2.53613	57.99
2.55280	58.00
2.56947	58.00
2.58613	58.00
2.60280	58.00
2.61947	58.00
2.63613	58.00
2.65280	58.00
2.66947	58.00
2.68613	58.00
2.70280	58.00
2.71947	58.00
2.73613	58.00
2.75280	58.00
2.76947	58.00
2.78613	58.00
2.80280	58.00
2.81947	58.00
2.83613	58.00
2.85280	58.00
2.86947	58.00
2.88613	58.00
2.90280	58.00
2.91947	58.00
2.93613	58.00
2.95280	58.00
2.96947	58.00
2.98613	58.00
3.00280	58.00
3.01947	58.00
3.03613	58.00
3.05280	58.00
3.06947	58.00
3.08613	58.00
3.10280	58.00
3.11947	58.00
3.13613	58.00
3.15280	58.00
3.16947	58.00
3.18613	58.00
3.20280	58.00
3.21947	58.00
3.23613	58.00
3.25280	58.00
3.26947	58.00
3.28613	58.00
3.30280	58.00
3.31947	58.00
3.33613	58.00
3.35280	58.00
3.36947	58.00
3.38613	58.00
3.40280	58.00
3.41947	58.00
3.43613	58.00
3.45280	58.00
3.46947	58.00
3.48613	58.00
3.50280	58.00
3.51947	58.00
3.53613	58.00
3.55280	58.00
3.56947	58.00
3.58613	58.00
3.60280	58.00
3.61947	58.00
3.63613	58.00
3.65280	58.00
3.66947	58.00
3.68613	58.00
3.70280	58.00
3.71947	58.00
3.73613	58.00
3.75280	58.00
3.76947	58.00
3.78613	58.00
3.80280	58.00
3.81947	58.00
3.83613	58.00
3.85280	58.00
3.86947	58.00
3.88613	58.00
3.90280	58.00
3.91947	58.00
3.93613	58.00
3.95280	58.00
3.96947	58.00
3.98613	58.00

[Status Trace (Carrier Gas Flow)]
Interval(msec)	1000
# of Points	240
Start Time(min)	0.003
End Time(min)	3.986
Intensity Units	
Intensity Multiplier	1
R.Time (min)	Intensity
0.00280	34.52
0.01947	34.59
0.03613	34.55
0.05280	34.55
0.06947	34.49
0.08613	34.52
0.10280	34.52
0.11947	34.52
0.13613	34.52
0.15280	34.52
0.16947	34.52
0.18613	34.53
0.20280	34.52
0.21947	34.52
0.23613	34.52
0.25280	34.52
0.26947	34.52
0.28613	34.52
0.30280	34.51
0.31947	34.52
0.33613	34.51
0.35280	34.52
0.36947	34.52
0.38613	34.52
0.40280	34.52
0.41947	34.51
0.43613	34.52
0.45280	34.52
0.46947	34.52
0.48613	34.52
0.50280	34.52
0.51947	34.52
0.53613	34.52
0.55280	34.52
0.56947	34.52
0.58613	34.52
0.60280	34.53
0.61947	34.52
0.63613	34.52
0.65280	34.52
0.66947	34.51
0.68613	34.51
0.70280	34.53
0.71947	34.52
0.73613	34.52
0.75280	34.51
0.76947	34.53
0.78613	34.53
0.80280	34.52
0.81947	34.52
0.83613	34.51
0.85280	34.52
0.86947	34.52
0.88613	34.52
0.90280	34.52
0.91947	34.52
0.93613	34.52
0.95280	34.52
0.96947	34.52
0.98613	34.52
1.00280	34.51
1.01947	34.52
1.03613	34.52
1.05280	34.52
1.06947	34.52
1.08613	34.52
1.10280	34.52
1.11947	34.52
1.13613	34.52
1.15280	34.51
1.16947	34.51
1.18613	34.52
1.20280	34.52
1.21947	34.52
1.23613	34.51
1.25280	34.52
1.26947	34.52
1.28613	34.51
1.30280	34.52
1.31947	34.52
1.33613	34.52
1.35280	34.52
1.36947	34.52
1.38613	34.52
1.40280	34.52
1.41947	34.52
1.43613	34.52
1.45280	34.52
1.46947	34.52
1.48613	34.52
1.50280	34.52
1.51947	34.52
1.53613	34.52
1.55280	34.52
1.56947	34.52
1.58613	34.52
1.60280	34.52
1.61947	34.51
1.63613	34.53
1.65280	34.52
1.66947	34.52
1.68613	34.52
1.70280	34.51
1.71947	34.52
1.73613	34.52
1.75280	34.51
1.76947	34.52
1.78613	34.52
1.80280	34.52
1.81947	34.52
1.83613	34.52
1.85280	34.52
1.86947	34.52
1.88613	34.51
1.90280	34.52
1.91947	34.52
1.93613	34.52
1.95280	34.52
1.96947	34.51
1.98613	34.51
2.00280	34.52
2.01947	34.52
2.03613	34.52
2.05280	34.52
2.06947	34.52
2.08613	34.52
2.10280	34.52
2.11947	34.52
2.13613	34.52
2.15280	34.52
2.16947	34.52
2.18613	34.51
2.20280	34.52
2.21947	34.52
2.23613	34.52
2.25280	34.52
2.26947	34.52
2.28613	34.52
2.30280	34.51
2.31947	34.52
2.33613	34.52
2.35280	34.52
2.36947	34.51
2.38613	34.52
2.40280	34.52
2.41947	34.52
2.43613	34.52
2.45280	34.52
2.46947	34.52
2.48613	34.52
2.50280	34.66
2.51947	34.52
2.53613	34.52
2.55280	34.52
2.56947	34.52
2.58613	34.52
2.60280	34.52
2.61947	34.52
2.63613	34.52
2.65280	34.52
2.66947	34.52
2.68613	34.52
2.70280	34.52
2.71947	34.52
2.73613	34.52
2.75280	34.51
2.76947	34.52
2.78613	34.52
2.80280	34.52
2.81947	34.52
2.83613	34.52
2.85280	34.51
2.86947	34.52
2.88613	34.52
2.90280	34.52
2.91947	34.52
2.93613	34.52
2.95280	34.52
2.96947	34.52
2.98613	34.52
3.00280	34.52
3.01947	34.52
3.03613	34.51
3.05280	34.52
3.06947	34.52
3.08613	34.52
3.10280	34.52
3.11947	34.52
3.13613	34.51
3.15280	34.52
3.16947	34.52
3.18613	34.52
3.20280	34.51
3.21947	34.52
3.23613	34.51
3.25280	34.52
3.26947	34.52
3.28613	34.52
3.30280	34.52
3.31947	34.52
3.33613	34.52
3.35280	34.52
3.36947	34.52
3.38613	34.52
3.40280	34.52
3.41947	34.52
3.43613	34.52
3.45280	34.52
3.46947	34.52
3.48613	34.51
3.50280	34.51
3.51947	34.53
3.53613	34.51
3.55280	34.51
3.56947	34.52
3.58613	34.52
3.60280	34.53
3.61947	34.52
3.63613	34.52
3.65280	34.51
3.66947	34.52
3.68613	34.52
3.70280	34.52
3.71947	34.52
3.73613	34.52
3.75280	34.51
3.76947	34.52
3.78613	34.52
3.80280	34.52
3.81947	34.51
3.83613	34.52
3.85280	34.52
3.86947	34.52
3.88613	34.52
3.90280	34.52
3.91947	34.52
3.93613	34.52
3.95280	34.52
3.96947	34.52
3.98613	34.52

[Status Trace (Column Flow)]
Interval(msec)	1000
# of Points	240
Start Time(min)	0.003
End Time(min)	3.986
Intensity Units	
Intensity Multiplier	1
R.Time (min)	Intensity
0.00280	5.54
0.01947	5.32
0.03613	5.34
0.05280	5.61
0.06947	5.75
0.08613	5.57
0.10280	5.53
0.11947	5.54
0.13613	5.54
0.15280	5.54
0.16947	5.54
0.18613	5.54
0.20280	5.54
0.21947	5.54
0.23613	5.54
0.25280	5.54
0.26947	5.54
0.28613	5.54
0.30280	5.54
0.31947	5.54
0.33613	5.54
0.35280	5.54
0.36947	5.54
0.38613	5.54
0.40280	5.54
0.41947	5.54
0.43613	5.54
0.45280	5.54
0.46947	5.54
0.48613	5.54
0.50280	5.54
0.51947	5.54
0.53613	5.54
0.55280	5.54
0.56947	5.54
0.58613	5.54
0.60280	5.54
0.61947	5.54
0.63613	5.54
0.65280	5.54
0.66947	5.54
0.68613	5.54
0.70280	5.54
0.71947	5.54
0.73613	5.54
0.75280	5.54
0.76947	5.54
0.78613	5.54
0.80280	5.54
0.81947	5.54
0.83613	5.54
0.85280	5.54
0.86947	5.54
0.88613	5.54
0.90280	5.54
0.91947	5.54
0.93613	5.54
0.95280	5.54
0.96947	5.54
0.98613	5.54
1.00280	5.54
1.01947	5.54
1.03613	5.54
1.05280	5.54
1.06947	5.54
1.08613	5.54
1.10280	5.54
1.11947	5.54
1.13613	5.54
1.15280	5.54
1.16947	5.54
1.18613	5.54
1.20280	5.54
1.21947	5.54
1.23613	5.54
1.25280	5.54
1.26947	5.54
1.28613	5.54
1.30280	5.54
1.31947	5.54
1.33613	5.54
1.35280	5.54
1.36947	5.54
1.38613	5.54
1.40280	5.54
1.41947	5.54
1.43613	5.54
1.45280	5.54
1.46947	5.54
1.48613	5.54
1.50280	5.54
1.51947	5.54
1.53613	5.54
1.55280	5.54
1.56947	5.54
1.58613	5.54
1.60280	5.54
1.61947	5.53
1.63613	5.53
1.65280	5.52
1.66947	5.51
1.68613	5.50
1.70280	5.49
1.71947	5.48
1.73613	5.47
1.75280	5.46
1.76947	5.45
1.78613	5.44
1.80280	5.43
1.81947	5.42
1.83613	5.41
1.85280	5.40
1.86947	5.39
1.88613	5.38
1.90280	5.37
1.91947	5.36
1.93613	5.35
1.95280	5.34
1.96947	5.33
1.98613	5.32
2.00280	5.31
2.01947	5.30
2.03613	5.29
2.05280	5.28
2.06947	5.27
2.08613	5.26
2.10280	5.25
2.11947	5.24
2.13613	5.23
2.15280	5.22
2.16947	5.21
2.18613	5.20
2.20280	5.19
2.21947	5.19
2.23613	5.18
2.25280	5.17
2.26947	5.16
2.28613	5.15
2.30280	5.14
2.31947	5.13
2.33613	5.12
2.35280	5.11
2.36947	5.10
2.38613	5.10
2.40280	5.10
2.41947	5.10
2.43613	5.10
2.45280	5.10
2.46947	5.10
2.48613	5.10
2.50280	5.10
2.51947	5.10
2.53613	5.10
2.55280	5.10
2.56947	5.10
2.58613	5.10
2.60280	5.10
2.61947	5.10
2.63613	5.10
2.65280	5.10
2.66947	5.10
2.68613	5.10
2.70280	5.10
2.71947	5.10
2.73613	5.10
2.75280	5.10
2.76947	5.10
2.78613	5.10
2.80280	5.10
2.81947	5.10
2.83613	5.10
2.85280	5.10
2.86947	5.10
2.88613	5.10
2.90280	5.10
2.91947	5.10
2.93613	5.09
2.95280	5.09
2.96947	5.09
2.98613	5.09
3.00280	5.09
3.01947	5.09
3.03613	5.09
3.05280	5.09
3.06947	5.09
3.08613	5.09
3.10280	5.09
3.11947	5.09
3.13613	5.09
3.15280	5.09
3.16947	5.09
3.18613	5.09
3.20280	5.09
3.21947	5.09
3.23613	5.09
3.25280	5.09
3.26947	5.09
3.28613	5.09
3.30280	5.09
3.31947	5.09
3.33613	5.09
3.35280	5.09
3.36947	5.09
3.38613	5.09
3.40280	5.09
3.41947	5.09
3.43613	5.09
3.45280	5.09
3.46947	5.09
3.48613	5.09
3.50280	5.09
3.51947	5.09
3.53613	5.09
3.55280	5.09
3.56947	5.09
3.58613	5.09
3.60280	5.09
3.61947	5.09
3.63613	5.09
3.65280	5.09
3.66947	5.09
3.68613	5.09
3.70280	5.09
3.71947	5.09
3.73613	5.09
3.75280	5.09
3.76947	5.09
3.78613	5.09
3.80280	5.09
3.81947	5.09
3.83613	5.09
3.85280	5.09
3.86947	5.09
3.88613	5.09
3.90280	5.09
3.91947	5.09
3.93613	5.09
3.95280	5.09
3.96947	5.09
3.98613	5.09

[Status Trace (Linear Velocity)]
Interval(msec)	1000
# of Points	240
Start Time(min)	0.003
End Time(min)	3.986
Intensity Units	
Intensity Multiplier	1
R.Time (min)	Intensity
0.00280	39.01
0.01947	37.79
0.03613	37.93
0.05280	39.43
0.06947	40.21
0.08613	39.20
0.10280	39.00
0.11947	39.02
0.13613	39.03
0.15280	39.02
0.16947	39.02
0.18613	39.02
0.20280	39.02
0.21947	39.02
0.23613	39.02
0.25280	39.02
0.26947	39.02
0.28613	39.02
0.30280	39.02
0.31947	39.02
0.33613	39.02
0.35280	39.02
0.36947	39.02
0.38613	39.02
0.40280	39.02
0.41947	39.02
0.43613	39.02
0.45280	39.02
0.46947	39.02
0.48613	39.02
0.50280	39.02
0.51947	39.02
0.53613	39.02
0.55280	39.02
0.56947	39.02
0.58613	39.02
0.60280	39.02
0.61947	39.02
0.63613	39.02
0.65280	39.02
0.66947	39.02
0.68613	39.02
0.70280	39.02
0.71947	39.02
0.73613	39.02
0.75280	39.02
0.76947	39.02
0.78613	39.02
0.80280	39.02
0.81947	39.02
0.83613	39.02
0.85280	39.02
0.86947	39.02
0.88613	39.02
0.90280	39.02
0.91947	39.02
0.93613	39.02
0.95280	39.02
0.96947	39.02
0.98613	39.02
1.00280	39.02
1.01947	39.02
1.03613	39.02
1.05280	39.02
1.06947	39.02
1.08613	39.02
1.10280	39.02
1.11947	39.02
1.13613	39.02
1.15280	39.02
1.16947	39.02
1.18613	39.02
1.20280	39.02
1.21947	39.02
1.23613	39.02
1.25280	39.02
1.26947	39.02
1.28613	39.02
1.30280	39.02
1.31947	39.02
1.33613	39.02
1.35280	39.02
1.36947	39.02
1.38613	39.02
1.40280	39.02
1.41947	39.02
1.43613	39.02
1.45280	39.02
1.46947	39.02
1.48613	39.02
1.50280	39.02
1.51947	39.02
1.53613	39.02
1.55280	39.02
1.56947	39.02
1.58613	39.02
1.60280	39.02
1.61947	39.01
1.63613	38.99
1.65280	38.97
1.66947	38.94
1.68613	38.91
1.70280	38.87
1.71947	38.84
1.73613	38.81
1.75280	38.78
1.76947	38.75
1.78613	38.71
1.80280	38.68
1.81947	38.65
1.83613	38.62
1.85280	38.59
1.86947	38.56
1.88613	38.53
1.90280	38.49
1.91947	38.46
1.93613	38.43
1.95280	38.40
1.96947	38.37
1.98613	38.34
2.00280	38.31
2.01947	38.28
2.03613	38.25
2.05280	38.22
2.06947	38.19
2.08613	38.16
2.10280	38.14
2.11947	38.11
2.13613	38.08
2.15280	38.04
2.16947	38.02
2.18613	37.99
2.20280	37.96
2.21947	37.93
2.23613	37.90
2.25280	37.87
2.26947	37.84
2.28613	37.81
2.30280	37.78
2.31947	37.75
2.33613	37.72
2.35280	37.69
2.36947	37.67
2.38613	37.66
2.40280	37.65
2.41947	37.66
2.43613	37.66
2.45280	37.66
2.46947	37.66
2.48613	37.66
2.50280	37.63
2.51947	37.66
2.53613	37.65
2.55280	37.65
2.56947	37.65
2.58613	37.65
2.60280	37.65
2.61947	37.65
2.63613	37.65
2.65280	37.65
2.66947	37.65
2.68613	37.65
2.70280	37.65
2.71947	37.65
2.73613	37.65
2.75280	37.65
2.76947	37.65
2.78613	37.65
2.80280	37.65
2.81947	37.65
2.83613	37.65
2.85280	37.65
2.86947	37.65
2.88613	37.65
2.90280	37.64
2.91947	37.64
2.93613	37.64
2.95280	37.64
2.96947	37.64
2.98613	37.64
3.00280	37.63
3.01947	37.63
3.03613	37.63
3.05280	37.63
3.06947	37.63
3.08613	37.63
3.10280	37.63
3.11947	37.63
3.13613	37.63
3.15280	37.63
3.16947	37.63
3.18613	37.63
3.20280	37.63
3.21947	37.63
3.23613	37.63
3.25280	37.63
3.26947	37.63
3.28613	37.63
3.30280	37.63
3.31947	37.63
3.33613	37.63
3.35280	37.63
3.36947	37.63
3.38613	37.63
3.40280	37.63
3.41947	37.63
3.43613	37.63
3.45280	37.63
3.46947	37.63
3.48613	37.63
3.50280	37.63
3.51947	37.63
3.53613	37.63
3.55280	37.63
3.56947	37.63
3.58613	37.63
3.60280	37.63
3.61947	37.63
3.63613	37.63
3.65280	37.63
3.66947	37.63
3.68613	37.63
3.70280	37.63
3.71947	37.63
3.73613	37.63
3.75280	37.63
3.76947	37.63
3.78613	37.63
3.80280	37.63
3.81947	37.63
3.83613	37.63
3.85280	37.63
3.86947	37.63
3.88613	37.63
3.90280	37.63
3.91947	37.63
3.93613	37.63
3.95280	37.63
3.96947	37.63
3.98613	37.64

