[Header]
Application Name	LabSolutions
Version	5.110
Data File Name	C:\Users\User\Desktop\GC Analyses\Jack\Nachusa Grasslands Sampling\T3 Timepoint July 12th\T3_07122022_057.gcd
Output Date	3/14/2023
Output Time	3:43:34 PM

[File Information]
Type	Data File
Generated	3/13/2023 8:49:58 PM
Generated by	System Administrator
Modified	3/13/2023 8:56:37 PM
Modified by	System Administrator

[Sample Information]
Operator Name	System Administrator
Acquired	3/13/2023 8:52:36 PM
Sample Type	0:Unknown
Level	0
Sample Name	057
Sample ID	057
ISTD Amount1	1
ISTD Amount2	1
ISTD Amount3	1
ISTD Amount4	1
ISTD Amount5	1
ISTD Amount6	1
ISTD Amount7	1
ISTD Amount8	1
ISTD Amount9	1
ISTD Amount10	1
ISTD Amount11	1
ISTD Amount12	1
ISTD Amount13	1
ISTD Amount14	1
ISTD Amount15	1
ISTD Amount16	1
ISTD Amount17	1
ISTD Amount18	1
ISTD Amount19	1
ISTD Amount20	1
ISTD Amount21	1
ISTD Amount22	1
ISTD Amount23	1
ISTD Amount24	1
ISTD Amount25	1
ISTD Amount26	1
ISTD Amount27	1
ISTD Amount28	1
ISTD Amount29	1
ISTD Amount30	1
ISTD Amount31	1
ISTD Amount32	1
Sample Amount	1
Dilution Factor	1
Vial#	56
Injection Volume	1
Injection Count	1
Bar Code	

[Original Files]
Data File	C:\Users\User\Desktop\GC Analyses\Jack\Nachusa Grasslands Sampling\T3 Timepoint July 12th\T3_07122022_057.gcd
Method File	C:\LabSolutions\Data\GHG_4min_2022\ghg3_togas_w_acet_4 min_new_int.gcm
Batch File	C:\LabSolutions\Data\AutoSamplerTesting\T3_07122022.gcb
Report Format File	c:\LabSolutions\System\DEFAULT.lsr

[File Description]


[Configuration]
Instrument Name	C0B7VH3-Instrument1
Instrument #	1
Line #	1
# of Detectors	3
Detector ID	DET#1	DET#2	DET#3
Detector Name	FID	PTCD	ECD
# of Channels	1	1	1

[Peak Table(Ch1)]
# of Peaks	3
Peak#	R.Time	I.Time	F.Time	Area	Height	A/H	Conc.	Mark	ID#	Name	k'	Plate #	Plate Ht.	Tailing	Resolution	Sep.Factor	Area Ratio	Height Ratio	Conc. %	Norm Conc.
1	1.457	1.377	1.479	894	582	1.536	6.310	   	1	CO	0.000	22284	6.731	0.651	0.000	0.000	0	0	0.674	0.674
2	1.571	1.534	1.652	20759	10418	1.993	401.397	   	2	CH4	0.078	11486	13.059	1.166	2.327	0.000	0	0	42.874	42.874
3	2.000	1.952	2.323	2105873	1012428	2.080	528.517	   	3	CO2	0.372	17495	8.574	1.188	7.203	4.774	0	0	56.452	56.452

[Peak Table(Ch2)]
# of Peaks	0

[Peak Table(Ch3)]
# of Peaks	6
Peak#	R.Time	I.Time	F.Time	Area	Height	A/H	Conc.	Mark	ID#	Name	k'	Plate #	Plate Ht.	Tailing	Resolution	Sep.Factor	Area Ratio	Height Ratio	Conc. %	Norm Conc.
1	2.462	2.290	2.510	2211	646	3.423	0.000	   			0.000	10262	14.618	0.000	0.000	0.000	0	0	0.000	0.000
2	2.528	2.510	2.583	1091	360	3.033	0.000	 V 			0.027	5727	26.190	0.000	0.572	0.000	0	0	0.000	0.000
3	2.605	2.583	2.689	611	156	3.918	0.000	 V 			0.058	1684	89.071	0.000	0.397	2.167	0	0	0.000	0.000
4	2.880	2.708	3.181	60027	15144	3.964	1.533	S  	1	N2O	0.170	12595	11.910	1.567	1.542	2.923	0	0	100.000	100.000
5	3.166	3.159	3.177	19	32	0.610	0.000	T  	2	SF6	0.286	360228	0.416	1.245	4.622	1.684	0	0	0.000	0.000
6	3.368	3.188	3.995	19189	708	27.093	0.000	   	2	SF6	0.368	249	602.030	2.188	0.461	1.286	0	0	0.000	0.000

[Compound Results(Ch1)]
# of IDs	6
ID#	Name	R.Time	Area	Height	Conc.	Curve	3rd	2nd	1st	Constant	Area Ratio	Height Ratio	Conc. %	Norm Conc.
1	CO	1.457	894	582	6.310	Linear	0.000000e+00	0.000000e+00	1.416423e+002	0.000000e+00	0	0	0.674	0.674
2	CH4	1.571	20759	10418	401.397	Linear	0.000000e+00	0.000000e+00	5.171738e+001	0.000000e+00	0	0	42.874	42.874
3	CO2	2.000	2105873	1012428	528.517	Linear	0.000000e+00	0.000000e+00	3.984494e+003	0.000000e+00	0	0	56.452	56.452
4	Ethylene	0.000	0	0	0.000	Linear	0.000000e+00	0.000000e+00	0.000000e+00	0.000000e+00	0	0	0.000	0.000
5	Acetylene	0.000	0	0	0.000	Linear	0.000000e+00	0.000000e+00	0.000000e+00	0.000000e+00	0	0	0.000	0.000
6	Ethane	0.000	0	0	0.000	Linear	0.000000e+00	0.000000e+00	0.000000e+00	0.000000e+00	0	0	0.000	0.000

[Compound Results(Ch2)]
# of IDs	5
ID#	Name	R.Time	Area	Height	Conc.	Curve	3rd	2nd	1st	Constant	Area Ratio	Height Ratio	Conc. %	Norm Conc.
1	Hydrogen	0.000	0	0	0.000	Linear	0.000000e+00	0.000000e+00	0.000000e+00	0.000000e+00	0	0	0.000	0.000
2	Oxygen	0.000	0	0	0.000	Linear	0.000000e+00	0.000000e+00	0.000000e+00	0.000000e+00	0	0	0.000	0.000
3	Nitrogen	0.000	0	0	0.000	Linear	0.000000e+00	0.000000e+00	0.000000e+00	0.000000e+00	0	0	0.000	0.000
4	Methane	0.000	0	0	0.000	Linear	0.000000e+00	0.000000e+00	0.000000e+00	0.000000e+00	0	0	0.000	0.000
5	Carbon Monoxide	0.000	0	0	0.000	Linear	0.000000e+00	0.000000e+00	0.000000e+00	0.000000e+00	0	0	0.000	0.000

[Compound Results(Ch3)]
# of IDs	2
ID#	Name	R.Time	Area	Height	Conc.	Curve	3rd	2nd	1st	Constant	Area Ratio	Height Ratio	Conc. %	Norm Conc.
1	N2O	2.880	60027	15144	1.533	Linear	0.000000e+00	0.000000e+00	3.915173e+004	0.000000e+00	0	0	100.000	100.000
2	SF6	3.368	19208	740	0.000	Linear	0.000000e+00	0.000000e+00	0.000000e+00	0.000000e+00	0	0	0.000	0.000

[Group Results(Ch1)]
# of Groups	0

[Group Results(Ch2)]
# of Groups	0

[Group Results(Ch3)]
# of Groups	0

[Chromatogram (Ch1)]
Interval(msec)	220
# of Points	1091
Start Time(min)	0.002
End Time(min)	3.998
R.Time (min)	Intensity
0.00167	-3
0.00533	2
0.00900	7
0.01267	8
0.01633	9
0.02000	9
0.02367	12
0.02733	16
0.03100	21
0.03467	30
0.03833	40
0.04200	45
0.04567	40
0.04933	32
0.05300	23
0.05667	19
0.06033	15
0.06400	12
0.06767	11
0.07133	9
0.07500	3
0.07867	-3
0.08233	-3
0.08600	1
0.08967	2
0.09333	2
0.09700	1
0.10067	1
0.10433	6
0.10800	13
0.11167	19
0.11533	25
0.11900	31
0.12267	28
0.12633	21
0.13000	14
0.13367	10
0.13733	8
0.14100	10
0.14467	10
0.14833	8
0.15200	12
0.15567	16
0.15933	16
0.16300	16
0.16667	18
0.17033	23
0.17400	29
0.17767	37
0.18133	45
0.18500	48
0.18867	46
0.19233	42
0.19600	34
0.19967	21
0.20333	8
0.20700	-2
0.21067	-11
0.21433	-18
0.21800	-23
0.22167	-21
0.22533	-10
0.22900	4
0.23267	19
0.23633	28
0.24000	32
0.24367	36
0.24733	41
0.25100	46
0.25467	55
0.25833	64
0.26200	70
0.26567	75
0.26933	77
0.27300	77
0.27667	80
0.28033	83
0.28400	82
0.28767	82
0.29133	83
0.29500	84
0.29867	87
0.30233	92
0.30600	97
0.30967	104
0.31333	112
0.31700	112
0.32067	106
0.32433	103
0.32800	105
0.33167	108
0.33533	110
0.33900	113
0.34267	117
0.34633	120
0.35000	122
0.35367	118
0.35733	111
0.36100	100
0.36467	91
0.36833	84
0.37200	82
0.37567	81
0.37933	75
0.38300	67
0.38667	59
0.39033	48
0.39400	36
0.39767	31
0.40133	30
0.40500	28
0.40867	29
0.41233	30
0.41600	28
0.41967	28
0.42333	27
0.42700	22
0.43067	16
0.43433	10
0.43800	6
0.44167	4
0.44533	3
0.44900	4
0.45267	8
0.45633	10
0.46000	10
0.46367	9
0.46733	15
0.47100	26
0.47467	36
0.47833	35
0.48200	29
0.48567	21
0.48933	13
0.49300	8
0.49667	8
0.50033	9
0.50400	10
0.50767	13
0.51133	18
0.51500	23
0.51867	29
0.52233	31
0.52600	31
0.52967	27
0.53333	20
0.53700	11
0.54067	6
0.54433	4
0.54800	2
0.55167	3
0.55533	2
0.55900	3
0.56267	2
0.56633	1
0.57000	2
0.57367	4
0.57733	5
0.58100	-1
0.58467	-8
0.58833	-9
0.59200	-6
0.59567	-3
0.59933	2
0.60300	2
0.60667	-4
0.61033	-9
0.61400	-8
0.61767	-3
0.62133	-1
0.62500	-5
0.62867	-8
0.63233	-7
0.63600	-2
0.63967	-0
0.64333	-1
0.64700	-4
0.65067	-4
0.65433	0
0.65800	6
0.66167	8
0.66533	4
0.66900	-3
0.67267	-10
0.67633	-13
0.68000	-15
0.68367	-12
0.68733	-5
0.69100	-2
0.69467	-6
0.69833	-8
0.70200	-8
0.70567	-12
0.70933	-15
0.71300	-18
0.71667	-20
0.72033	-18
0.72400	-14
0.72767	-6
0.73133	2
0.73500	5
0.73867	3
0.74233	-2
0.74600	-6
0.74967	-8
0.75333	-6
0.75700	-4
0.76067	-9
0.76433	-19
0.76800	-24
0.77167	-24
0.77533	-23
0.77900	-23
0.78267	-24
0.78633	-24
0.79000	-29
0.79367	-32
0.79733	-33
0.80100	-36
0.80467	-39
0.80833	-37
0.81200	-28
0.81567	-18
0.81933	-9
0.82300	-7
0.82667	-8
0.83033	-6
0.83400	-5
0.83767	-5
0.84133	-3
0.84500	-5
0.84867	-15
0.85233	-21
0.85600	-22
0.85967	-19
0.86333	-17
0.86700	-18
0.87067	-20
0.87433	-20
0.87800	-23
0.88167	-24
0.88533	-25
0.88900	-24
0.89267	-25
0.89633	-28
0.90000	-26
0.90367	-21
0.90733	-21
0.91100	-24
0.91467	-25
0.91833	-26
0.92200	-25
0.92567	-22
0.92933	-21
0.93300	-22
0.93667	-24
0.94033	-30
0.94400	-36
0.94767	-39
0.95133	-38
0.95500	-32
0.95867	-28
0.96233	-24
0.96600	-18
0.96967	-15
0.97333	-13
0.97700	-10
0.98067	-8
0.98433	-10
0.98800	-16
0.99167	-24
0.99533	-28
0.99900	-25
1.00267	-22
1.00633	-28
1.01000	-38
1.01367	-45
1.01733	-48
1.02100	-48
1.02467	-49
1.02833	-48
1.03200	-43
1.03567	-39
1.03933	-39
1.04300	-41
1.04667	-43
1.05033	-41
1.05400	-40
1.05767	-42
1.06133	-45
1.06500	-48
1.06867	-50
1.07233	-54
1.07600	-59
1.07967	-62
1.08333	-62
1.08700	-58
1.09067	-53
1.09433	-48
1.09800	-42
1.10167	-38
1.10533	-37
1.10900	-38
1.11267	-39
1.11633	-39
1.12000	-39
1.12367	-34
1.12733	-31
1.13100	-30
1.13467	-33
1.13833	-40
1.14200	-47
1.14567	-50
1.14933	-50
1.15300	-50
1.15667	-49
1.16033	-44
1.16400	-37
1.16767	-31
1.17133	-27
1.17500	-26
1.17867	-30
1.18233	-36
1.18600	-43
1.18967	-49
1.19333	-53
1.19700	-54
1.20067	-47
1.20433	-39
1.20800	-34
1.21167	-28
1.21533	-27
1.21900	-34
1.22267	-42
1.22633	-45
1.23000	-40
1.23367	-29
1.23733	-24
1.24100	-26
1.24467	-28
1.24833	-30
1.25200	-33
1.25567	-35
1.25933	-35
1.26300	-29
1.26667	-22
1.27033	-22
1.27400	-24
1.27767	-25
1.28133	-25
1.28500	-23
1.28867	-23
1.29233	-23
1.29600	-21
1.29967	-17
1.30333	-12
1.30700	-10
1.31067	-8
1.31433	-4
1.31800	-1
1.32167	-0
1.32533	-1
1.32900	-3
1.33267	-7
1.33633	-10
1.34000	-14
1.34367	-15
1.34733	-18
1.35100	-21
1.35467	-23
1.35833	-25
1.36200	-24
1.36567	-19
1.36933	-15
1.37300	-12
1.37667	-10
1.38033	-14
1.38400	-20
1.38767	-24
1.39133	-28
1.39500	-27
1.39867	-24
1.40233	-18
1.40600	-13
1.40967	-10
1.41333	-11
1.41700	-15
1.42067	-21
1.42433	-25
1.42800	-27
1.43167	-28
1.43533	-29
1.43900	-26
1.44267	6
1.44633	118
1.45000	298
1.45367	418
1.45733	416
1.46100	321
1.46467	175
1.46833	18
1.47200	-109
1.47567	-184
1.47933	-208
1.48300	-212
1.48667	-214
1.49033	-221
1.49400	-236
1.49767	-259
1.50133	-280
1.50500	-294
1.50867	-300
1.51233	-304
1.51600	-312
1.51967	-317
1.52333	-315
1.52700	-308
1.53067	-306
1.53433	-302
1.53800	-256
1.54167	-35
1.54533	636
1.54900	1981
1.55267	3879
1.55633	5924
1.56000	7739
1.56367	9129
1.56733	9983
1.57100	10164
1.57467	9567
1.57833	8284
1.58200	6627
1.58567	4952
1.58933	3505
1.59300	2382
1.59667	1561
1.60033	986
1.60400	594
1.60767	337
1.61133	175
1.61500	72
1.61867	3
1.62233	-38
1.62600	-67
1.62967	-86
1.63333	-104
1.63700	-118
1.64067	-125
1.64433	-136
1.64800	-145
1.65167	-149
1.65533	-148
1.65900	-139
1.66267	-126
1.66633	-118
1.67000	-116
1.67367	-114
1.67733	-110
1.68100	-110
1.68467	-113
1.68833	-117
1.69200	-119
1.69567	-116
1.69933	-111
1.70300	-110
1.70667	-113
1.71033	-120
1.71400	-124
1.71767	-123
1.72133	-118
1.72500	-111
1.72867	-105
1.73233	-97
1.73600	-88
1.73967	-83
1.74333	-80
1.74700	-79
1.75067	-81
1.75433	-90
1.75800	-106
1.76167	-123
1.76533	-134
1.76900	-137
1.77267	-133
1.77633	-124
1.78000	-113
1.78367	-103
1.78733	-95
1.79100	-92
1.79467	-93
1.79833	-100
1.80200	-109
1.80567	-115
1.80933	-120
1.81300	-121
1.81667	-115
1.82033	-108
1.82400	-100
1.82767	-93
1.83133	-89
1.83500	-86
1.83867	-84
1.84233	-82
1.84600	-82
1.84967	-91
1.85333	-104
1.85700	-115
1.86067	-120
1.86433	-119
1.86800	-115
1.87167	-110
1.87533	-107
1.87900	-102
1.88267	-95
1.88633	-89
1.89000	-83
1.89367	-80
1.89733	-78
1.90100	-77
1.90467	-78
1.90833	-78
1.91200	-78
1.91567	-79
1.91933	-83
1.92300	-87
1.92667	-91
1.93033	-92
1.93400	-93
1.93767	-92
1.94133	-86
1.94500	-83
1.94867	-83
1.95233	-71
1.95600	8
1.95967	497
1.96333	3002
1.96700	12760
1.97067	41912
1.97433	109065
1.97800	229272
1.98167	399172
1.98533	593318
1.98900	776782
1.99267	919640
1.99633	1001457
2.00000	1012395
2.00367	954122
2.00733	840816
2.01100	696006
2.01467	545017
2.01833	407502
2.02200	293989
2.02567	206821
2.02933	143263
2.03300	98571
2.03667	67889
2.04033	47131
2.04400	33193
2.04767	23835
2.05133	17510
2.05500	13195
2.05867	10207
2.06233	8099
2.06600	6580
2.06967	5467
2.07333	4630
2.07700	3988
2.08067	3482
2.08433	3074
2.08800	2741
2.09167	2464
2.09533	2228
2.09900	2022
2.10267	1847
2.10633	1701
2.11000	1579
2.11367	1476
2.11733	1385
2.12100	1305
2.12467	1235
2.12833	1168
2.13200	1101
2.13567	1038
2.13933	982
2.14300	932
2.14667	884
2.15033	842
2.15400	807
2.15767	773
2.16133	737
2.16500	699
2.16867	664
2.17233	633
2.17600	608
2.17967	583
2.18333	561
2.18700	546
2.19067	534
2.19433	524
2.19800	518
2.20167	510
2.20533	494
2.20900	473
2.21267	455
2.21633	442
2.22000	428
2.22367	416
2.22733	408
2.23100	402
2.23467	396
2.23833	386
2.24200	375
2.24567	369
2.24933	368
2.25300	363
2.25667	355
2.26033	341
2.26400	325
2.26767	309
2.27133	298
2.27500	289
2.27867	282
2.28233	276
2.28600	266
2.28967	259
2.29333	254
2.29700	254
2.30067	253
2.30433	249
2.30800	243
2.31167	235
2.31533	232
2.31900	231
2.32267	229
2.32633	228
2.33000	231
2.33367	230
2.33733	226
2.34100	220
2.34467	216
2.34833	216
2.35200	221
2.35567	227
2.35933	229
2.36300	228
2.36667	227
2.37033	223
2.37400	217
2.37767	210
2.38133	204
2.38500	204
2.38867	202
2.39233	201
2.39600	199
2.39967	196
2.40333	192
2.40700	188
2.41067	186
2.41433	182
2.41800	177
2.42167	174
2.42533	175
2.42900	179
2.43267	187
2.43633	193
2.44000	197
2.44367	199
2.44733	202
2.45100	204
2.45467	203
2.45833	201
2.46200	200
2.46567	201
2.46933	203
2.47300	202
2.47667	199
2.48033	198
2.48400	199
2.48767	196
2.49133	188
2.49500	176
2.49867	163
2.50233	152
2.50600	144
2.50967	143
2.51333	149
2.51700	156
2.52067	161
2.52433	163
2.52800	164
2.53167	169
2.53533	170
2.53900	169
2.54267	168
2.54633	169
2.55000	173
2.55367	176
2.55733	175
2.56100	174
2.56467	173
2.56833	173
2.57200	173
2.57567	171
2.57933	169
2.58300	170
2.58667	172
2.59033	176
2.59400	178
2.59767	179
2.60133	181
2.60500	179
2.60867	169
2.61233	159
2.61600	150
2.61967	144
2.62333	147
2.62700	157
2.63067	170
2.63433	174
2.63800	167
2.64167	159
2.64533	154
2.64900	152
2.65267	148
2.65633	143
2.66000	140
2.66367	143
2.66733	149
2.67100	160
2.67467	173
2.67833	183
2.68200	186
2.68567	184
2.68933	183
2.69300	186
2.69667	192
2.70033	197
2.70400	197
2.70767	193
2.71133	187
2.71500	184
2.71867	189
2.72233	203
2.72600	211
2.72967	211
2.73333	209
2.73700	204
2.74067	194
2.74433	187
2.74800	186
2.75167	188
2.75533	187
2.75900	185
2.76267	185
2.76633	187
2.77000	184
2.77367	184
2.77733	186
2.78100	188
2.78467	191
2.78833	195
2.79200	204
2.79567	217
2.79933	226
2.80300	227
2.80667	224
2.81033	219
2.81400	216
2.81767	216
2.82133	213
2.82500	208
2.82867	209
2.83233	214
2.83600	220
2.83967	223
2.84333	224
2.84700	218
2.85067	202
2.85433	187
2.85800	176
2.86167	172
2.86533	174
2.86900	178
2.87267	183
2.87633	188
2.88000	196
2.88367	205
2.88733	210
2.89100	213
2.89467	208
2.89833	196
2.90200	187
2.90567	186
2.90933	191
2.91300	198
2.91667	202
2.92033	203
2.92400	205
2.92767	208
2.93133	209
2.93500	208
2.93867	210
2.94233	216
2.94600	222
2.94967	230
2.95333	241
2.95700	251
2.96067	257
2.96433	259
2.96800	252
2.97167	239
2.97533	233
2.97900	232
2.98267	228
2.98633	223
2.99000	220
2.99367	222
2.99733	227
3.00100	231
3.00467	229
3.00833	226
3.01200	224
3.01567	225
3.01933	229
3.02300	234
3.02667	240
3.03033	242
3.03400	243
3.03767	248
3.04133	251
3.04500	245
3.04867	235
3.05233	228
3.05600	225
3.05967	224
3.06333	227
3.06700	229
3.07067	230
3.07433	232
3.07800	237
3.08167	240
3.08533	246
3.08900	250
3.09267	249
3.09633	246
3.10000	239
3.10367	229
3.10733	220
3.11100	214
3.11467	214
3.11833	218
3.12200	222
3.12567	228
3.12933	234
3.13300	238
3.13667	236
3.14033	228
3.14400	219
3.14767	211
3.15133	209
3.15500	216
3.15867	222
3.16233	219
3.16600	218
3.16967	219
3.17333	219
3.17700	216
3.18067	213
3.18433	210
3.18800	203
3.19167	197
3.19533	196
3.19900	200
3.20267	205
3.20633	204
3.21000	201
3.21367	200
3.21733	203
3.22100	204
3.22467	205
3.22833	205
3.23200	204
3.23567	203
3.23933	206
3.24300	211
3.24667	213
3.25033	212
3.25400	211
3.25767	212
3.26133	214
3.26500	218
3.26867	214
3.27233	209
3.27600	206
3.27967	207
3.28333	210
3.28700	215
3.29067	217
3.29433	216
3.29800	216
3.30167	219
3.30533	222
3.30900	223
3.31267	222
3.31633	215
3.32000	210
3.32367	204
3.32733	196
3.33100	190
3.33467	191
3.33833	195
3.34200	199
3.34567	204
3.34933	207
3.35300	209
3.35667	211
3.36033	212
3.36400	217
3.36767	222
3.37133	221
3.37500	214
3.37867	205
3.38233	196
3.38600	189
3.38967	182
3.39333	179
3.39700	176
3.40067	173
3.40433	172
3.40800	179
3.41167	194
3.41533	210
3.41900	215
3.42267	214
3.42633	208
3.43000	202
3.43367	200
3.43733	201
3.44100	199
3.44467	193
3.44833	181
3.45200	173
3.45567	166
3.45933	161
3.46300	158
3.46667	158
3.47033	162
3.47400	168
3.47767	175
3.48133	180
3.48500	180
3.48867	181
3.49233	179
3.49600	177
3.49967	179
3.50333	183
3.50700	190
3.51067	194
3.51433	192
3.51800	185
3.52167	180
3.52533	176
3.52900	172
3.53267	167
3.53633	170
3.54000	178
3.54367	186
3.54733	185
3.55100	176
3.55467	165
3.55833	156
3.56200	153
3.56567	154
3.56933	152
3.57300	152
3.57667	157
3.58033	162
3.58400	168
3.58767	173
3.59133	176
3.59500	178
3.59867	174
3.60233	170
3.60600	166
3.60967	163
3.61333	166
3.61700	172
3.62067	176
3.62433	175
3.62800	172
3.63167	170
3.63533	169
3.63900	168
3.64267	168
3.64633	167
3.65000	167
3.65367	169
3.65733	176
3.66100	183
3.66467	185
3.66833	181
3.67200	176
3.67567	170
3.67933	165
3.68300	164
3.68667	158
3.69033	148
3.69400	140
3.69767	131
3.70133	127
3.70500	131
3.70867	144
3.71233	154
3.71600	157
3.71967	156
3.72333	151
3.72700	147
3.73067	150
3.73433	160
3.73800	170
3.74167	174
3.74533	168
3.74900	152
3.75267	139
3.75633	131
3.76000	126
3.76367	126
3.76733	128
3.77100	127
3.77467	125
3.77833	126
3.78200	127
3.78567	132
3.78933	136
3.79300	136
3.79667	136
3.80033	143
3.80400	156
3.80767	164
3.81133	160
3.81500	156
3.81867	154
3.82233	147
3.82600	142
3.82967	145
3.83333	148
3.83700	148
3.84067	149
3.84433	153
3.84800	156
3.85167	152
3.85533	143
3.85900	142
3.86267	146
3.86633	149
3.87000	151
3.87367	151
3.87733	148
3.88100	144
3.88467	137
3.88833	127
3.89200	118
3.89567	118
3.89933	124
3.90300	132
3.90667	136
3.91033	132
3.91400	127
3.91767	120
3.92133	113
3.92500	107
3.92867	101
3.93233	100
3.93600	109
3.93967	121
3.94333	129
3.94700	125
3.95067	115
3.95433	108
3.95800	107
3.96167	113
3.96533	117
3.96900	117
3.97267	117
3.97633	121
3.98000	128
3.98367	127
3.98733	118
3.99100	107
3.99467	103
3.99833	102

[Chromatogram (Ch2)]
Interval(msec)	220
# of Points	1091
Start Time(min)	0.002
End Time(min)	3.998
R.Time (min)	Intensity
0.00167	-1
0.00533	-2
0.00900	-2
0.01267	-2
0.01633	-3
0.02000	-4
0.02367	-4
0.02733	-4
0.03100	-4
0.03467	-4
0.03833	-3
0.04200	-3
0.04567	-3
0.04933	-3
0.05300	-4
0.05667	-4
0.06033	-4
0.06400	-4
0.06767	-4
0.07133	-4
0.07500	-4
0.07867	-5
0.08233	-5
0.08600	-5
0.08967	-5
0.09333	-4
0.09700	-4
0.10067	-4
0.10433	-3
0.10800	-3
0.11167	-3
0.11533	-3
0.11900	-3
0.12267	-4
0.12633	-3
0.13000	-3
0.13367	-3
0.13733	-3
0.14100	-4
0.14467	-4
0.14833	-4
0.15200	-4
0.15567	-4
0.15933	-4
0.16300	-3
0.16667	-3
0.17033	-3
0.17400	-3
0.17767	-3
0.18133	-3
0.18500	-3
0.18867	-3
0.19233	-3
0.19600	-3
0.19967	-3
0.20333	-3
0.20700	-2
0.21067	-2
0.21433	-2
0.21800	-2
0.22167	-1
0.22533	-1
0.22900	-0
0.23267	-0
0.23633	0
0.24000	0
0.24367	0
0.24733	0
0.25100	1
0.25467	0
0.25833	0
0.26200	0
0.26567	0
0.26933	0
0.27300	0
0.27667	0
0.28033	0
0.28400	-0
0.28767	-0
0.29133	-1
0.29500	-1
0.29867	-1
0.30233	-1
0.30600	-1
0.30967	-1
0.31333	-1
0.31700	-1
0.32067	-1
0.32433	-1
0.32800	-1
0.33167	-1
0.33533	-2
0.33900	-2
0.34267	-2
0.34633	-2
0.35000	-2
0.35367	-2
0.35733	-2
0.36100	-2
0.36467	-3
0.36833	-3
0.37200	-3
0.37567	-3
0.37933	-3
0.38300	-3
0.38667	-4
0.39033	-4
0.39400	-4
0.39767	-4
0.40133	-5
0.40500	-5
0.40867	-5
0.41233	-5
0.41600	-6
0.41967	-7
0.42333	-7
0.42700	-8
0.43067	-8
0.43433	-8
0.43800	-8
0.44167	-8
0.44533	-8
0.44900	-7
0.45267	-7
0.45633	-6
0.46000	-5
0.46367	-4
0.46733	-4
0.47100	-3
0.47467	-3
0.47833	-3
0.48200	-2
0.48567	-2
0.48933	-2
0.49300	-2
0.49667	-2
0.50033	-2
0.50400	-2
0.50767	-2
0.51133	-2
0.51500	-1
0.51867	-1
0.52233	-1
0.52600	-2
0.52967	-2
0.53333	-2
0.53700	-2
0.54067	-2
0.54433	-2
0.54800	-3
0.55167	-3
0.55533	-3
0.55900	-3
0.56267	-3
0.56633	-3
0.57000	-3
0.57367	-3
0.57733	-3
0.58100	-4
0.58467	-4
0.58833	-4
0.59200	-5
0.59567	-5
0.59933	-5
0.60300	-5
0.60667	-5
0.61033	-5
0.61400	-5
0.61767	-5
0.62133	-5
0.62500	-4
0.62867	-4
0.63233	-3
0.63600	-3
0.63967	-2
0.64333	-2
0.64700	-2
0.65067	-1
0.65433	-1
0.65800	-1
0.66167	-1
0.66533	-1
0.66900	-1
0.67267	-2
0.67633	-2
0.68000	-2
0.68367	-2
0.68733	-3
0.69100	-2
0.69467	-2
0.69833	-2
0.70200	-2
0.70567	-2
0.70933	-2
0.71300	-3
0.71667	-3
0.72033	-3
0.72400	-4
0.72767	-4
0.73133	-4
0.73500	-4
0.73867	-4
0.74233	-4
0.74600	-4
0.74967	-4
0.75333	-3
0.75700	-3
0.76067	-3
0.76433	-2
0.76800	-2
0.77167	-1
0.77533	-0
0.77900	-0
0.78267	0
0.78633	0
0.79000	0
0.79367	0
0.79733	0
0.80100	-0
0.80467	-1
0.80833	-1
0.81200	-1
0.81567	-2
0.81933	-2
0.82300	-2
0.82667	-3
0.83033	-3
0.83400	-3
0.83767	-3
0.84133	-3
0.84500	-3
0.84867	-3
0.85233	-3
0.85600	-3
0.85967	-3
0.86333	-2
0.86700	-2
0.87067	-2
0.87433	-2
0.87800	-2
0.88167	-2
0.88533	-2
0.88900	-2
0.89267	-2
0.89633	-2
0.90000	-2
0.90367	-2
0.90733	-2
0.91100	-2
0.91467	-3
0.91833	-3
0.92200	-3
0.92567	-3
0.92933	-3
0.93300	-3
0.93667	-3
0.94033	-3
0.94400	-3
0.94767	-2
0.95133	-2
0.95500	-2
0.95867	-2
0.96233	-1
0.96600	-1
0.96967	-1
0.97333	-1
0.97700	-1
0.98067	-2
0.98433	-2
0.98800	-3
0.99167	-3
0.99533	-4
0.99900	-4
1.00267	-5
1.00633	-5
1.01000	-5
1.01367	-6
1.01733	-6
1.02100	-6
1.02467	-6
1.02833	-6
1.03200	-6
1.03567	-6
1.03933	-6
1.04300	-6
1.04667	-6
1.05033	-6
1.05400	-6
1.05767	-6
1.06133	-6
1.06500	-6
1.06867	-6
1.07233	-6
1.07600	-6
1.07967	-6
1.08333	-6
1.08700	-6
1.09067	-6
1.09433	-6
1.09800	-6
1.10167	-6
1.10533	-6
1.10900	-6
1.11267	-6
1.11633	-6
1.12000	-5
1.12367	-5
1.12733	-5
1.13100	-5
1.13467	-4
1.13833	-4
1.14200	-4
1.14567	-4
1.14933	-4
1.15300	-4
1.15667	-4
1.16033	-4
1.16400	-4
1.16767	-4
1.17133	-4
1.17500	-4
1.17867	-4
1.18233	-4
1.18600	-3
1.18967	-3
1.19333	-2
1.19700	-2
1.20067	-2
1.20433	-2
1.20800	-2
1.21167	-2
1.21533	-2
1.21900	-1
1.22267	-1
1.22633	-1
1.23000	-0
1.23367	-0
1.23733	0
1.24100	1
1.24467	1
1.24833	0
1.25200	0
1.25567	0
1.25933	-0
1.26300	-0
1.26667	-1
1.27033	-1
1.27400	-2
1.27767	-2
1.28133	-2
1.28500	-3
1.28867	-3
1.29233	-4
1.29600	-4
1.29967	-5
1.30333	-5
1.30700	-6
1.31067	-6
1.31433	-6
1.31800	-6
1.32167	-6
1.32533	-5
1.32900	-5
1.33267	-5
1.33633	-4
1.34000	-4
1.34367	-3
1.34733	-3
1.35100	-3
1.35467	-3
1.35833	-3
1.36200	-3
1.36567	-3
1.36933	-3
1.37300	-4
1.37667	-4
1.38033	-4
1.38400	-5
1.38767	-5
1.39133	-5
1.39500	-6
1.39867	-6
1.40233	-6
1.40600	-6
1.40967	-6
1.41333	-6
1.41700	-6
1.42067	-6
1.42433	-6
1.42800	-7
1.43167	-7
1.43533	-7
1.43900	-6
1.44267	-6
1.44633	-6
1.45000	-6
1.45367	-6
1.45733	-5
1.46100	-5
1.46467	-5
1.46833	-4
1.47200	-4
1.47567	-5
1.47933	-5
1.48300	-5
1.48667	-5
1.49033	-5
1.49400	-5
1.49767	-5
1.50133	-4
1.50500	-4
1.50867	-4
1.51233	-4
1.51600	-4
1.51967	-3
1.52333	-3
1.52700	-3
1.53067	-3
1.53433	-2
1.53800	-2
1.54167	-2
1.54533	-1
1.54900	-1
1.55267	-1
1.55633	-0
1.56000	-0
1.56367	0
1.56733	0
1.57100	0
1.57467	0
1.57833	0
1.58200	0
1.58567	-0
1.58933	-0
1.59300	-1
1.59667	-2
1.60033	-3
1.60400	-4
1.60767	-6
1.61133	-8
1.61500	-10
1.61867	-12
1.62233	-15
1.62600	-17
1.62967	-21
1.63333	-24
1.63700	-28
1.64067	-32
1.64433	-36
1.64800	-40
1.65167	-44
1.65533	-48
1.65900	-52
1.66267	-57
1.66633	-62
1.67000	-67
1.67367	-72
1.67733	-78
1.68100	-83
1.68467	-88
1.68833	-92
1.69200	-95
1.69567	-98
1.69933	-101
1.70300	-103
1.70667	-105
1.71033	-106
1.71400	-108
1.71767	-108
1.72133	-109
1.72500	-110
1.72867	-110
1.73233	-110
1.73600	-109
1.73967	-109
1.74333	-109
1.74700	-109
1.75067	-110
1.75433	-110
1.75800	-111
1.76167	-111
1.76533	-112
1.76900	-112
1.77267	-112
1.77633	-113
1.78000	-114
1.78367	-115
1.78733	-116
1.79100	-117
1.79467	-117
1.79833	-117
1.80200	-117
1.80567	-116
1.80933	-115
1.81300	-114
1.81667	-113
1.82033	-112
1.82400	-111
1.82767	-111
1.83133	-111
1.83500	-112
1.83867	-113
1.84233	-114
1.84600	-115
1.84967	-115
1.85333	-116
1.85700	-117
1.86067	-117
1.86433	-118
1.86800	-118
1.87167	-117
1.87533	-117
1.87900	-116
1.88267	-116
1.88633	-115
1.89000	-115
1.89367	-115
1.89733	-115
1.90100	-115
1.90467	-115
1.90833	-114
1.91200	-114
1.91567	-115
1.91933	-115
1.92300	-115
1.92667	-116
1.93033	-115
1.93400	-115
1.93767	-115
1.94133	-114
1.94500	-114
1.94867	-114
1.95233	-113
1.95600	-113
1.95967	-112
1.96333	-112
1.96700	-111
1.97067	-110
1.97433	-110
1.97800	-109
1.98167	-109
1.98533	-109
1.98900	-108
1.99267	-108
1.99633	-108
2.00000	-108
2.00367	-108
2.00733	-109
2.01100	-109
2.01467	-110
2.01833	-110
2.02200	-110
2.02567	-109
2.02933	-108
2.03300	-107
2.03667	-106
2.04033	-106
2.04400	-105
2.04767	-104
2.05133	-104
2.05500	-104
2.05867	-104
2.06233	-103
2.06600	-103
2.06967	-102
2.07333	-101
2.07700	-101
2.08067	-101
2.08433	-101
2.08800	-101
2.09167	-101
2.09533	-101
2.09900	-101
2.10267	-101
2.10633	-100
2.11000	-100
2.11367	-100
2.11733	-100
2.12100	-100
2.12467	-99
2.12833	-98
2.13200	-97
2.13567	-96
2.13933	-96
2.14300	-96
2.14667	-95
2.15033	-95
2.15400	-95
2.15767	-95
2.16133	-95
2.16500	-95
2.16867	-96
2.17233	-96
2.17600	-95
2.17967	-95
2.18333	-95
2.18700	-94
2.19067	-93
2.19433	-93
2.19800	-93
2.20167	-92
2.20533	-92
2.20900	-92
2.21267	-92
2.21633	-91
2.22000	-91
2.22367	-91
2.22733	-91
2.23100	-90
2.23467	-90
2.23833	-89
2.24200	-88
2.24567	-87
2.24933	-86
2.25300	-86
2.25667	-86
2.26033	-85
2.26400	-85
2.26767	-85
2.27133	-84
2.27500	-84
2.27867	-83
2.28233	-82
2.28600	-81
2.28967	-81
2.29333	-81
2.29700	-82
2.30067	-83
2.30433	-83
2.30800	-84
2.31167	-84
2.31533	-84
2.31900	-84
2.32267	-84
2.32633	-83
2.33000	-82
2.33367	-82
2.33733	-81
2.34100	-80
2.34467	-79
2.34833	-78
2.35200	-77
2.35567	-76
2.35933	-74
2.36300	-73
2.36667	-72
2.37033	-71
2.37400	-69
2.37767	-66
2.38133	-63
2.38500	-59
2.38867	-55
2.39233	-51
2.39600	-46
2.39967	-41
2.40333	-37
2.40700	-32
2.41067	-28
2.41433	-24
2.41800	-21
2.42167	-18
2.42533	-15
2.42900	-13
2.43267	-12
2.43633	-11
2.44000	-10
2.44367	-9
2.44733	-9
2.45100	-8
2.45467	-8
2.45833	-8
2.46200	-7
2.46567	-6
2.46933	-6
2.47300	-5
2.47667	-4
2.48033	-3
2.48400	-2
2.48767	-0
2.49133	1
2.49500	2
2.49867	3
2.50233	4
2.50600	5
2.50967	7
2.51333	8
2.51700	8
2.52067	9
2.52433	9
2.52800	8
2.53167	8
2.53533	8
2.53900	9
2.54267	9
2.54633	9
2.55000	10
2.55367	11
2.55733	12
2.56100	13
2.56467	14
2.56833	14
2.57200	15
2.57567	15
2.57933	15
2.58300	15
2.58667	15
2.59033	15
2.59400	15
2.59767	15
2.60133	16
2.60500	16
2.60867	17
2.61233	17
2.61600	18
2.61967	18
2.62333	18
2.62700	19
2.63067	19
2.63433	19
2.63800	19
2.64167	19
2.64533	19
2.64900	19
2.65267	19
2.65633	19
2.66000	19
2.66367	19
2.66733	19
2.67100	19
2.67467	19
2.67833	19
2.68200	19
2.68567	19
2.68933	19
2.69300	19
2.69667	19
2.70033	19
2.70400	19
2.70767	19
2.71133	19
2.71500	20
2.71867	20
2.72233	20
2.72600	20
2.72967	21
2.73333	21
2.73700	22
2.74067	22
2.74433	22
2.74800	23
2.75167	23
2.75533	24
2.75900	24
2.76267	24
2.76633	25
2.77000	25
2.77367	25
2.77733	26
2.78100	26
2.78467	26
2.78833	25
2.79200	25
2.79567	24
2.79933	24
2.80300	23
2.80667	23
2.81033	22
2.81400	22
2.81767	22
2.82133	22
2.82500	22
2.82867	22
2.83233	22
2.83600	22
2.83967	22
2.84333	21
2.84700	18
2.85067	14
2.85433	7
2.85800	-4
2.86167	-18
2.86533	-37
2.86900	-62
2.87267	-92
2.87633	-127
2.88000	-169
2.88367	-216
2.88733	-268
2.89100	-325
2.89467	-388
2.89833	-454
2.90200	-525
2.90567	-600
2.90933	-678
2.91300	-759
2.91667	-843
2.92033	-930
2.92400	-1019
2.92767	-1110
2.93133	-1203
2.93500	-1298
2.93867	-1393
2.94233	-1478
2.94600	-1541
2.94967	-1571
2.95333	-1563
2.95700	-1520
2.96067	-1448
2.96433	-1354
2.96800	-1248
2.97167	-1135
2.97533	-1021
2.97900	-910
2.98267	-805
2.98633	-708
2.99000	-618
2.99367	-538
2.99733	-466
3.00100	-402
3.00467	-346
3.00833	-296
3.01200	-254
3.01567	-216
3.01933	-184
3.02300	-156
3.02667	-133
3.03033	-112
3.03400	-95
3.03767	-80
3.04133	-67
3.04500	-56
3.04867	-47
3.05233	-39
3.05600	-32
3.05967	-26
3.06333	-21
3.06700	-16
3.07067	-13
3.07433	-9
3.07800	-7
3.08167	-4
3.08533	-2
3.08900	-1
3.09267	1
3.09633	2
3.10000	4
3.10367	5
3.10733	5
3.11100	6
3.11467	6
3.11833	7
3.12200	7
3.12567	8
3.12933	8
3.13300	9
3.13667	9
3.14033	9
3.14400	9
3.14767	10
3.15133	10
3.15500	11
3.15867	11
3.16233	12
3.16600	12
3.16967	12
3.17333	13
3.17700	13
3.18067	14
3.18433	14
3.18800	15
3.19167	15
3.19533	15
3.19900	16
3.20267	16
3.20633	16
3.21000	17
3.21367	17
3.21733	17
3.22100	18
3.22467	18
3.22833	18
3.23200	18
3.23567	18
3.23933	18
3.24300	18
3.24667	18
3.25033	18
3.25400	18
3.25767	19
3.26133	19
3.26500	19
3.26867	20
3.27233	20
3.27600	20
3.27967	20
3.28333	20
3.28700	21
3.29067	21
3.29433	21
3.29800	21
3.30167	21
3.30533	21
3.30900	21
3.31267	22
3.31633	22
3.32000	22
3.32367	22
3.32733	22
3.33100	21
3.33467	21
3.33833	21
3.34200	21
3.34567	21
3.34933	21
3.35300	21
3.35667	21
3.36033	21
3.36400	21
3.36767	21
3.37133	21
3.37500	21
3.37867	21
3.38233	22
3.38600	22
3.38967	22
3.39333	22
3.39700	22
3.40067	22
3.40433	22
3.40800	23
3.41167	23
3.41533	23
3.41900	24
3.42267	24
3.42633	24
3.43000	24
3.43367	23
3.43733	23
3.44100	23
3.44467	23
3.44833	23
3.45200	24
3.45567	24
3.45933	24
3.46300	24
3.46667	25
3.47033	25
3.47400	25
3.47767	26
3.48133	26
3.48500	26
3.48867	26
3.49233	26
3.49600	26
3.49967	27
3.50333	27
3.50700	27
3.51067	27
3.51433	27
3.51800	27
3.52167	28
3.52533	28
3.52900	28
3.53267	28
3.53633	28
3.54000	28
3.54367	28
3.54733	28
3.55100	28
3.55467	28
3.55833	28
3.56200	28
3.56567	27
3.56933	27
3.57300	27
3.57667	27
3.58033	27
3.58400	27
3.58767	27
3.59133	27
3.59500	27
3.59867	27
3.60233	27
3.60600	27
3.60967	27
3.61333	27
3.61700	27
3.62067	26
3.62433	26
3.62800	26
3.63167	25
3.63533	24
3.63900	24
3.64267	23
3.64633	23
3.65000	23
3.65367	22
3.65733	22
3.66100	22
3.66467	22
3.66833	22
3.67200	23
3.67567	23
3.67933	23
3.68300	24
3.68667	24
3.69033	24
3.69400	25
3.69767	25
3.70133	25
3.70500	25
3.70867	25
3.71233	25
3.71600	25
3.71967	25
3.72333	25
3.72700	25
3.73067	25
3.73433	25
3.73800	25
3.74167	25
3.74533	24
3.74900	24
3.75267	24
3.75633	24
3.76000	24
3.76367	24
3.76733	25
3.77100	25
3.77467	25
3.77833	25
3.78200	25
3.78567	25
3.78933	25
3.79300	25
3.79667	24
3.80033	24
3.80400	23
3.80767	23
3.81133	22
3.81500	22
3.81867	22
3.82233	21
3.82600	21
3.82967	21
3.83333	21
3.83700	21
3.84067	21
3.84433	21
3.84800	21
3.85167	21
3.85533	21
3.85900	21
3.86267	21
3.86633	21
3.87000	21
3.87367	21
3.87733	21
3.88100	22
3.88467	22
3.88833	22
3.89200	23
3.89567	23
3.89933	24
3.90300	24
3.90667	25
3.91033	25
3.91400	25
3.91767	26
3.92133	26
3.92500	26
3.92867	26
3.93233	25
3.93600	25
3.93967	26
3.94333	26
3.94700	26
3.95067	26
3.95433	26
3.95800	26
3.96167	25
3.96533	25
3.96900	25
3.97267	25
3.97633	25
3.98000	25
3.98367	25
3.98733	25
3.99100	25
3.99467	25
3.99833	24

[Chromatogram (Ch3)]
Interval(msec)	220
# of Points	1091
Start Time(min)	0.002
End Time(min)	3.998
R.Time (min)	Intensity
0.00167	-1
0.00533	-1
0.00900	0
0.01267	3
0.01633	4
0.02000	4
0.02367	3
0.02733	1
0.03100	-2
0.03467	-4
0.03833	-5
0.04200	-7
0.04567	-8
0.04933	-6
0.05300	-4
0.05667	-3
0.06033	-2
0.06400	-4
0.06767	-4
0.07133	-4
0.07500	-6
0.07867	-8
0.08233	-9
0.08600	-10
0.08967	-9
0.09333	-7
0.09700	-3
0.10067	-1
0.10433	-0
0.10800	1
0.11167	-1
0.11533	-4
0.11900	-6
0.12267	-7
0.12633	-7
0.13000	-5
0.13367	-5
0.13733	-5
0.14100	-6
0.14467	-7
0.14833	-9
0.15200	-10
0.15567	-10
0.15933	-11
0.16300	-12
0.16667	-10
0.17033	-9
0.17400	-9
0.17767	-9
0.18133	-8
0.18500	-6
0.18867	-3
0.19233	-2
0.19600	-3
0.19967	-5
0.20333	-7
0.20700	-8
0.21067	-10
0.21433	-12
0.21800	-13
0.22167	-12
0.22533	-10
0.22900	-10
0.23267	-11
0.23633	-12
0.24000	-12
0.24367	-15
0.24733	-15
0.25100	-14
0.25467	-15
0.25833	-16
0.26200	-16
0.26567	-13
0.26933	-12
0.27300	-10
0.27667	-9
0.28033	-8
0.28400	-8
0.28767	-9
0.29133	-10
0.29500	-11
0.29867	-11
0.30233	-13
0.30600	-13
0.30967	-13
0.31333	-12
0.31700	-12
0.32067	-12
0.32433	-11
0.32800	-12
0.33167	-12
0.33533	-12
0.33900	-14
0.34267	-14
0.34633	-14
0.35000	-14
0.35367	-15
0.35733	-16
0.36100	-16
0.36467	-13
0.36833	-12
0.37200	-13
0.37567	-14
0.37933	-14
0.38300	-14
0.38667	-16
0.39033	-18
0.39400	-18
0.39767	-17
0.40133	-16
0.40500	-14
0.40867	-13
0.41233	-11
0.41600	-11
0.41967	-12
0.42333	-11
0.42700	-12
0.43067	-12
0.43433	-11
0.43800	-10
0.44167	-9
0.44533	-7
0.44900	-7
0.45267	-9
0.45633	-9
0.46000	-10
0.46367	-10
0.46733	-9
0.47100	-10
0.47467	-12
0.47833	-13
0.48200	-13
0.48567	-12
0.48933	-12
0.49300	-13
0.49667	-13
0.50033	-14
0.50400	-13
0.50767	-12
0.51133	-12
0.51500	-13
0.51867	-15
0.52233	-15
0.52600	-14
0.52967	-11
0.53333	-12
0.53700	-15
0.54067	-17
0.54433	-16
0.54800	-16
0.55167	-15
0.55533	-14
0.55900	-14
0.56267	-12
0.56633	-11
0.57000	-11
0.57367	-9
0.57733	-7
0.58100	-8
0.58467	-9
0.58833	-9
0.59200	-8
0.59567	-8
0.59933	-9
0.60300	-9
0.60667	-8
0.61033	-9
0.61400	-11
0.61767	-10
0.62133	-8
0.62500	-6
0.62867	-6
0.63233	-7
0.63600	-9
0.63967	-11
0.64333	-11
0.64700	-11
0.65067	-10
0.65433	-10
0.65800	-10
0.66167	-9
0.66533	-9
0.66900	-7
0.67267	-7
0.67633	-9
0.68000	-11
0.68367	-11
0.68733	-10
0.69100	-8
0.69467	-8
0.69833	-9
0.70200	-9
0.70567	-8
0.70933	-8
0.71300	-9
0.71667	-11
0.72033	-14
0.72400	-13
0.72767	-13
0.73133	-12
0.73500	-11
0.73867	-11
0.74233	-12
0.74600	-13
0.74967	-11
0.75333	-10
0.75700	-9
0.76067	-9
0.76433	-10
0.76800	-8
0.77167	-9
0.77533	-9
0.77900	-9
0.78267	-11
0.78633	-12
0.79000	-11
0.79367	-11
0.79733	-12
0.80100	-13
0.80467	-11
0.80833	-11
0.81200	-12
0.81567	-12
0.81933	-9
0.82300	-9
0.82667	-10
0.83033	-12
0.83400	-13
0.83767	-15
0.84133	-14
0.84500	-14
0.84867	-15
0.85233	-16
0.85600	-14
0.85967	-10
0.86333	-6
0.86700	-5
0.87067	-6
0.87433	-5
0.87800	-4
0.88167	-5
0.88533	-8
0.88900	-10
0.89267	-10
0.89633	-9
0.90000	-10
0.90367	-11
0.90733	-12
0.91100	-13
0.91467	-14
0.91833	-14
0.92200	-14
0.92567	-16
0.92933	-16
0.93300	-15
0.93667	-13
0.94033	-12
0.94400	-12
0.94767	-10
0.95133	-11
0.95500	-11
0.95867	-11
0.96233	-9
0.96600	-9
0.96967	-7
0.97333	-6
0.97700	-6
0.98067	-7
0.98433	-8
0.98800	-9
0.99167	-9
0.99533	-7
0.99900	-5
1.00267	-5
1.00633	-5
1.01000	-6
1.01367	-4
1.01733	-3
1.02100	-6
1.02467	-8
1.02833	-8
1.03200	-7
1.03567	-5
1.03933	-3
1.04300	-2
1.04667	-0
1.05033	1
1.05400	2
1.05767	3
1.06133	3
1.06500	1
1.06867	-1
1.07233	-3
1.07600	-3
1.07967	-3
1.08333	-3
1.08700	-4
1.09067	-6
1.09433	-6
1.09800	-5
1.10167	-4
1.10533	-5
1.10900	-9
1.11267	-7
1.11633	-3
1.12000	-1
1.12367	1
1.12733	1
1.13100	1
1.13467	1
1.13833	1
1.14200	1
1.14567	3
1.14933	2
1.15300	2
1.15667	1
1.16033	-1
1.16400	-3
1.16767	-3
1.17133	-3
1.17500	-2
1.17867	-1
1.18233	1
1.18600	2
1.18967	1
1.19333	-1
1.19700	-1
1.20067	-2
1.20433	-2
1.20800	0
1.21167	2
1.21533	3
1.21900	4
1.22267	4
1.22633	3
1.23000	2
1.23367	3
1.23733	2
1.24100	1
1.24467	1
1.24833	-2
1.25200	-2
1.25567	-2
1.25933	-2
1.26300	-0
1.26667	1
1.27033	2
1.27400	4
1.27767	4
1.28133	4
1.28500	4
1.28867	6
1.29233	6
1.29600	5
1.29967	2
1.30333	2
1.30700	3
1.31067	1
1.31433	1
1.31800	1
1.32167	2
1.32533	2
1.32900	3
1.33267	4
1.33633	6
1.34000	6
1.34367	3
1.34733	1
1.35100	1
1.35467	1
1.35833	1
1.36200	1
1.36567	1
1.36933	2
1.37300	2
1.37667	7
1.38033	10
1.38400	11
1.38767	9
1.39133	8
1.39500	9
1.39867	9
1.40233	7
1.40600	5
1.40967	6
1.41333	6
1.41700	6
1.42067	5
1.42433	6
1.42800	7
1.43167	6
1.43533	8
1.43900	11
1.44267	12
1.44633	10
1.45000	9
1.45367	7
1.45733	6
1.46100	4
1.46467	2
1.46833	1
1.47200	3
1.47567	4
1.47933	4
1.48300	5
1.48667	5
1.49033	4
1.49400	4
1.49767	6
1.50133	8
1.50500	7
1.50867	6
1.51233	4
1.51600	2
1.51967	3
1.52333	3
1.52700	4
1.53067	4
1.53433	3
1.53800	4
1.54167	5
1.54533	6
1.54900	8
1.55267	8
1.55633	8
1.56000	9
1.56367	11
1.56733	11
1.57100	11
1.57467	11
1.57833	11
1.58200	11
1.58567	8
1.58933	6
1.59300	5
1.59667	4
1.60033	3
1.60400	3
1.60767	4
1.61133	4
1.61500	3
1.61867	5
1.62233	7
1.62600	7
1.62967	7
1.63333	8
1.63700	6
1.64067	8
1.64433	11
1.64800	12
1.65167	13
1.65533	14
1.65900	14
1.66267	15
1.66633	15
1.67000	14
1.67367	14
1.67733	15
1.68100	16
1.68467	17
1.68833	17
1.69200	18
1.69567	18
1.69933	17
1.70300	17
1.70667	18
1.71033	20
1.71400	22
1.71767	24
1.72133	24
1.72500	24
1.72867	25
1.73233	25
1.73600	25
1.73967	24
1.74333	26
1.74700	27
1.75067	26
1.75433	28
1.75800	28
1.76167	30
1.76533	31
1.76900	31
1.77267	30
1.77633	31
1.78000	32
1.78367	35
1.78733	37
1.79100	37
1.79467	36
1.79833	36
1.80200	38
1.80567	40
1.80933	39
1.81300	39
1.81667	39
1.82033	38
1.82400	38
1.82767	38
1.83133	37
1.83500	38
1.83867	39
1.84233	39
1.84600	38
1.84967	40
1.85333	40
1.85700	41
1.86067	41
1.86433	42
1.86800	42
1.87167	43
1.87533	43
1.87900	43
1.88267	45
1.88633	46
1.89000	48
1.89367	49
1.89733	51
1.90100	53
1.90467	54
1.90833	55
1.91200	58
1.91567	59
1.91933	60
1.92300	58
1.92667	57
1.93033	58
1.93400	59
1.93767	60
1.94133	61
1.94500	61
1.94867	61
1.95233	61
1.95600	61
1.95967	61
1.96333	62
1.96700	63
1.97067	63
1.97433	64
1.97800	66
1.98167	66
1.98533	69
1.98900	71
1.99267	72
1.99633	73
2.00000	75
2.00367	76
2.00733	78
2.01100	80
2.01467	83
2.01833	84
2.02200	85
2.02567	86
2.02933	88
2.03300	87
2.03667	88
2.04033	88
2.04400	89
2.04767	90
2.05133	93
2.05500	96
2.05867	98
2.06233	98
2.06600	98
2.06967	99
2.07333	99
2.07700	101
2.08067	103
2.08433	106
2.08800	109
2.09167	110
2.09533	107
2.09900	105
2.10267	107
2.10633	110
2.11000	111
2.11367	113
2.11733	117
2.12100	118
2.12467	119
2.12833	120
2.13200	122
2.13567	125
2.13933	126
2.14300	127
2.14667	130
2.15033	130
2.15400	129
2.15767	131
2.16133	134
2.16500	137
2.16867	140
2.17233	142
2.17600	143
2.17967	143
2.18333	143
2.18700	143
2.19067	142
2.19433	144
2.19800	146
2.20167	147
2.20533	148
2.20900	149
2.21267	152
2.21633	155
2.22000	159
2.22367	158
2.22733	158
2.23100	158
2.23467	160
2.23833	162
2.24200	163
2.24567	163
2.24933	165
2.25300	167
2.25667	171
2.26033	174
2.26400	176
2.26767	176
2.27133	176
2.27500	177
2.27867	177
2.28233	175
2.28600	173
2.28967	173
2.29333	173
2.29700	176
2.30067	180
2.30433	184
2.30800	187
2.31167	189
2.31533	189
2.31900	189
2.32267	190
2.32633	193
2.33000	195
2.33367	196
2.33733	198
2.34100	200
2.34467	203
2.34833	204
2.35200	205
2.35567	205
2.35933	206
2.36300	207
2.36667	208
2.37033	210
2.37400	211
2.37767	211
2.38133	213
2.38500	212
2.38867	208
2.39233	207
2.39600	208
2.39967	210
2.40333	215
2.40700	222
2.41067	228
2.41433	230
2.41800	229
2.42167	231
2.42533	233
2.42900	235
2.43267	236
2.43633	236
2.44000	239
2.44367	292
2.44733	434
2.45100	590
2.45467	720
2.45833	794
2.46200	801
2.46567	770
2.46933	736
2.47300	711
2.47667	697
2.48033	683
2.48400	652
2.48767	608
2.49133	558
2.49500	513
2.49867	477
2.50233	452
2.50600	437
2.50967	434
2.51333	441
2.51700	457
2.52067	478
2.52433	497
2.52800	508
2.53167	507
2.53533	495
2.53900	472
2.54267	441
2.54633	408
2.55000	378
2.55367	352
2.55733	331
2.56100	313
2.56467	300
2.56833	292
2.57200	286
2.57567	283
2.57933	283
2.58300	283
2.58667	284
2.59033	286
2.59400	290
2.59767	295
2.60133	296
2.60500	296
2.60867	295
2.61233	292
2.61600	286
2.61967	280
2.62333	273
2.62700	265
2.63067	256
2.63433	248
2.63800	242
2.64167	235
2.64533	229
2.64900	219
2.65267	209
2.65633	200
2.66000	191
2.66367	178
2.66733	168
2.67100	158
2.67467	150
2.67833	142
2.68200	137
2.68567	134
2.68933	131
2.69300	128
2.69667	129
2.70033	130
2.70400	129
2.70767	130
2.71133	134
2.71500	137
2.71867	140
2.72233	144
2.72600	148
2.72967	149
2.73333	151
2.73700	154
2.74067	157
2.74433	161
2.74800	165
2.75167	167
2.75533	168
2.75900	170
2.76267	172
2.76633	175
2.77000	176
2.77367	176
2.77733	177
2.78100	180
2.78467	182
2.78833	184
2.79200	188
2.79567	192
2.79933	197
2.80300	205
2.80667	210
2.81033	217
2.81400	225
2.81767	237
2.82133	258
2.82500	309
2.82867	421
2.83233	643
2.83600	1037
2.83967	1667
2.84333	2586
2.84700	3814
2.85067	5325
2.85433	7050
2.85800	8880
2.86167	10684
2.86533	12321
2.86900	13666
2.87267	14629
2.87633	15162
2.88000	15269
2.88367	14994
2.88733	14406
2.89100	13591
2.89467	12628
2.89833	11594
2.90200	10539
2.90567	9502
2.90933	8514
2.91300	7593
2.91667	6743
2.92033	5972
2.92400	5278
2.92767	4654
2.93133	4097
2.93500	3604
2.93867	3168
2.94233	2786
2.94600	2450
2.94967	2156
2.95333	1897
2.95700	1670
2.96067	1475
2.96433	1307
2.96800	1161
2.97167	1034
2.97533	922
2.97900	826
2.98267	740
2.98633	665
2.99000	601
2.99367	547
2.99733	500
3.00100	459
3.00467	426
3.00833	398
3.01200	373
3.01567	351
3.01933	332
3.02300	315
3.02667	299
3.03033	286
3.03400	276
3.03767	269
3.04133	261
3.04500	254
3.04867	248
3.05233	242
3.05600	238
3.05967	235
3.06333	231
3.06700	226
3.07067	224
3.07433	223
3.07800	223
3.08167	221
3.08533	219
3.08900	218
3.09267	217
3.09633	218
3.10000	218
3.10367	216
3.10733	216
3.11100	217
3.11467	216
3.11833	215
3.12200	214
3.12567	215
3.12933	216
3.13300	217
3.13667	216
3.14033	216
3.14400	216
3.14767	216
3.15133	216
3.15500	216
3.15867	215
3.16233	216
3.16600	213
3.16967	192
3.17333	158
3.17700	130
3.18067	115
3.18433	114
3.18800	129
3.19167	160
3.19533	203
3.19900	255
3.20267	311
3.20633	368
3.21000	423
3.21367	472
3.21733	515
3.22100	552
3.22467	583
3.22833	611
3.23200	636
3.23567	660
3.23933	681
3.24300	700
3.24667	715
3.25033	728
3.25400	740
3.25767	749
3.26133	757
3.26500	764
3.26867	773
3.27233	783
3.27600	793
3.27967	801
3.28333	808
3.28700	816
3.29067	824
3.29433	832
3.29800	838
3.30167	845
3.30533	852
3.30900	860
3.31267	868
3.31633	877
3.32000	885
3.32367	893
3.32733	899
3.33100	905
3.33467	912
3.33833	919
3.34200	926
3.34567	932
3.34933	937
3.35300	941
3.35667	944
3.36033	946
3.36400	949
3.36767	952
3.37133	953
3.37500	955
3.37867	955
3.38233	955
3.38600	954
3.38967	953
3.39333	952
3.39700	949
3.40067	946
3.40433	945
3.40800	942
3.41167	940
3.41533	938
3.41900	934
3.42267	931
3.42633	928
3.43000	926
3.43367	924
3.43733	921
3.44100	917
3.44467	912
3.44833	907
3.45200	902
3.45567	897
3.45933	895
3.46300	894
3.46667	893
3.47033	890
3.47400	886
3.47767	882
3.48133	879
3.48500	875
3.48867	873
3.49233	870
3.49600	868
3.49967	868
3.50333	868
3.50700	866
3.51067	863
3.51433	861
3.51800	859
3.52167	859
3.52533	858
3.52900	856
3.53267	852
3.53633	852
3.54000	852
3.54367	853
3.54733	853
3.55100	851
3.55467	851
3.55833	852
3.56200	853
3.56567	854
3.56933	854
3.57300	852
3.57667	852
3.58033	851
3.58400	851
3.58767	850
3.59133	849
3.59500	848
3.59867	847
3.60233	846
3.60600	844
3.60967	842
3.61333	840
3.61700	839
3.62067	838
3.62433	838
3.62800	837
3.63167	836
3.63533	835
3.63900	835
3.64267	833
3.64633	831
3.65000	829
3.65367	828
3.65733	827
3.66100	827
3.66467	826
3.66833	822
3.67200	816
3.67567	811
3.67933	808
3.68300	803
3.68667	802
3.69033	801
3.69400	799
3.69767	796
3.70133	795
3.70500	796
3.70867	794
3.71233	792
3.71600	788
3.71967	784
3.72333	781
3.72700	780
3.73067	778
3.73433	775
3.73800	773
3.74167	772
3.74533	770
3.74900	770
3.75267	769
3.75633	768
3.76000	765
3.76367	762
3.76733	760
3.77100	758
3.77467	755
3.77833	751
3.78200	749
3.78567	747
3.78933	745
3.79300	742
3.79667	738
3.80033	737
3.80400	738
3.80767	735
3.81133	733
3.81500	729
3.81867	728
3.82233	729
3.82600	729
3.82967	726
3.83333	724
3.83700	725
3.84067	723
3.84433	720
3.84800	717
3.85167	711
3.85533	707
3.85900	705
3.86267	705
3.86633	704
3.87000	702
3.87367	698
3.87733	694
3.88100	691
3.88467	690
3.88833	689
3.89200	688
3.89567	686
3.89933	685
3.90300	683
3.90667	681
3.91033	678
3.91400	673
3.91767	667
3.92133	664
3.92500	662
3.92867	661
3.93233	659
3.93600	658
3.93967	659
3.94333	660
3.94700	659
3.95067	657
3.95433	655
3.95800	654
3.96167	655
3.96533	655
3.96900	652
3.97267	649
3.97633	646
3.98000	644
3.98367	642
3.98733	643
3.99100	643
3.99467	641
3.99833	636

[Status Trace (Column Oven Temperature)]
Interval(msec)	1000
# of Points	240
Start Time(min)	0.001
End Time(min)	3.984
Intensity Units	
Intensity Multiplier	1
R.Time (min)	Intensity
0.00097	34.99
0.01763	35.00
0.03430	34.99
0.05097	35.01
0.06763	35.02
0.08430	35.02
0.10097	35.03
0.11763	35.05
0.13430	35.05
0.15097	35.05
0.16763	35.04
0.18430	35.04
0.20097	35.03
0.21763	35.02
0.23430	35.01
0.25097	35.00
0.26763	34.99
0.28430	34.99
0.30097	34.98
0.31763	34.99
0.33430	34.98
0.35097	34.98
0.36763	34.97
0.38430	34.98
0.40097	34.98
0.41763	35.00
0.43430	35.02
0.45097	35.02
0.46763	35.02
0.48430	35.01
0.50097	35.01
0.51763	35.00
0.53430	35.00
0.55097	35.01
0.56763	35.01
0.58430	35.02
0.60097	35.03
0.61763	35.02
0.63430	35.01
0.65097	35.00
0.66763	34.99
0.68430	35.00
0.70097	35.01
0.71763	35.02
0.73430	35.02
0.75097	35.00
0.76763	34.99
0.78430	34.98
0.80097	34.98
0.81763	34.99
0.83430	34.99
0.85097	34.98
0.86763	34.99
0.88430	34.98
0.90097	34.98
0.91763	34.98
0.93430	34.97
0.95097	34.97
0.96763	34.96
0.98430	34.97
1.00097	34.98
1.01763	34.98
1.03430	34.99
1.05097	35.00
1.06763	35.01
1.08430	35.02
1.10097	35.03
1.11763	35.02
1.13430	35.02
1.15097	35.02
1.16763	35.02
1.18430	35.01
1.20097	34.99
1.21763	34.99
1.23430	34.98
1.25097	34.97
1.26763	34.97
1.28430	34.97
1.30097	34.99
1.31763	34.99
1.33430	34.99
1.35097	34.97
1.36763	34.97
1.38430	34.98
1.40097	35.00
1.41763	35.02
1.43430	35.02
1.45097	35.02
1.46763	35.03
1.48430	35.03
1.50097	35.02
1.51763	35.01
1.53430	34.99
1.55097	34.98
1.56763	34.97
1.58430	34.95
1.60097	34.99
1.61763	35.08
1.63430	35.24
1.65097	35.47
1.66763	35.80
1.68430	36.17
1.70097	36.54
1.71763	36.88
1.73430	37.20
1.75097	37.54
1.76763	37.87
1.78430	38.23
1.80097	38.55
1.81763	38.84
1.83430	39.17
1.85097	39.51
1.86763	39.86
1.88430	40.18
1.90097	40.50
1.91763	40.84
1.93430	41.17
1.95097	41.50
1.96763	41.82
1.98430	42.15
2.00097	42.47
2.01763	42.81
2.03430	43.12
2.05097	43.46
2.06763	43.77
2.08430	44.10
2.10097	44.43
2.11763	44.76
2.13430	45.07
2.15097	45.39
2.16763	45.71
2.18430	46.05
2.20097	46.38
2.21763	46.73
2.23430	47.04
2.25097	47.37
2.26763	47.69
2.28430	48.01
2.30097	48.36
2.31763	48.69
2.33430	49.02
2.35097	49.31
2.36763	49.57
2.38430	49.67
2.40097	49.67
2.41763	49.68
2.43430	49.68
2.45097	49.69
2.46763	49.72
2.48430	49.72
2.50097	49.72
2.51763	49.72
2.53430	49.76
2.55097	49.77
2.56763	49.77
2.58430	49.79
2.60097	49.80
2.61763	49.80
2.63430	49.81
2.65097	49.82
2.66763	49.83
2.68430	49.84
2.70097	49.86
2.71763	49.88
2.73430	49.87
2.75097	49.86
2.76763	49.85
2.78430	49.85
2.80097	49.88
2.81763	49.89
2.83430	49.90
2.85097	49.90
2.86763	49.90
2.88430	49.90
2.90097	49.93
2.91763	49.94
2.93430	49.95
2.95097	49.96
2.96763	49.97
2.98430	49.99
3.00097	49.98
3.01763	49.99
3.03430	49.98
3.05097	49.98
3.06763	49.97
3.08430	49.97
3.10097	49.98
3.11763	49.99
3.13430	50.02
3.15097	50.03
3.16763	50.04
3.18430	50.04
3.20097	50.05
3.21763	50.05
3.23430	50.06
3.25097	50.06
3.26763	50.06
3.28430	50.06
3.30097	50.07
3.31763	50.07
3.33430	50.08
3.35097	50.09
3.36763	50.10
3.38430	50.10
3.40097	50.11
3.41763	50.10
3.43430	50.11
3.45097	50.11
3.46763	50.10
3.48430	50.09
3.50097	50.07
3.51763	50.06
3.53430	50.04
3.55097	50.02
3.56763	50.01
3.58430	50.00
3.60097	50.00
3.61763	50.00
3.63430	50.01
3.65097	50.03
3.66763	50.04
3.68430	50.03
3.70097	50.03
3.71763	50.03
3.73430	50.02
3.75097	50.02
3.76763	50.01
3.78430	50.01
3.80097	50.03
3.81763	50.05
3.83430	50.07
3.85097	50.07
3.86763	50.08
3.88430	50.07
3.90097	50.07
3.91763	50.05
3.93430	50.04
3.95097	50.04
3.96763	50.04
3.98430	50.05

[Status Trace (Injection Unit Temperature)]
Interval(msec)	1000
# of Points	240
Start Time(min)	0.001
End Time(min)	3.984
Intensity Units	
Intensity Multiplier	1
R.Time (min)	Intensity
0.00097	99.97
0.01763	99.97
0.03430	99.97
0.05097	99.97
0.06763	99.98
0.08430	99.98
0.10097	99.97
0.11763	99.97
0.13430	99.97
0.15097	99.97
0.16763	99.97
0.18430	99.98
0.20097	99.98
0.21763	99.98
0.23430	99.97
0.25097	99.98
0.26763	99.98
0.28430	99.98
0.30097	99.98
0.31763	99.98
0.33430	99.98
0.35097	99.98
0.36763	99.98
0.38430	99.98
0.40097	99.98
0.41763	99.98
0.43430	99.97
0.45097	99.98
0.46763	99.98
0.48430	99.98
0.50097	99.99
0.51763	99.98
0.53430	99.98
0.55097	99.98
0.56763	99.98
0.58430	99.98
0.60097	99.98
0.61763	99.98
0.63430	99.98
0.65097	99.98
0.66763	99.98
0.68430	99.98
0.70097	99.98
0.71763	99.98
0.73430	99.98
0.75097	99.98
0.76763	99.98
0.78430	99.98
0.80097	99.98
0.81763	99.98
0.83430	99.98
0.85097	99.98
0.86763	99.98
0.88430	99.98
0.90097	99.98
0.91763	99.98
0.93430	99.97
0.95097	99.97
0.96763	99.98
0.98430	99.98
1.00097	99.98
1.01763	99.98
1.03430	99.98
1.05097	99.98
1.06763	99.98
1.08430	99.98
1.10097	99.98
1.11763	99.98
1.13430	99.98
1.15097	99.98
1.16763	99.98
1.18430	99.98
1.20097	99.98
1.21763	99.98
1.23430	99.98
1.25097	99.98
1.26763	99.98
1.28430	99.98
1.30097	99.98
1.31763	99.98
1.33430	99.98
1.35097	99.98
1.36763	99.98
1.38430	99.98
1.40097	99.98
1.41763	99.99
1.43430	99.99
1.45097	99.99
1.46763	99.99
1.48430	99.98
1.50097	99.98
1.51763	99.98
1.53430	99.98
1.55097	99.99
1.56763	99.99
1.58430	99.99
1.60097	99.99
1.61763	99.99
1.63430	99.98
1.65097	99.99
1.66763	99.98
1.68430	99.99
1.70097	99.98
1.71763	99.98
1.73430	99.98
1.75097	99.98
1.76763	99.99
1.78430	99.98
1.80097	99.98
1.81763	99.98
1.83430	99.98
1.85097	99.98
1.86763	99.98
1.88430	99.98
1.90097	99.98
1.91763	99.97
1.93430	99.98
1.95097	99.98
1.96763	99.98
1.98430	99.98
2.00097	99.98
2.01763	99.97
2.03430	99.97
2.05097	99.97
2.06763	99.97
2.08430	99.97
2.10097	99.97
2.11763	99.96
2.13430	99.97
2.15097	99.97
2.16763	99.97
2.18430	99.97
2.20097	99.97
2.21763	99.96
2.23430	99.98
2.25097	99.97
2.26763	99.97
2.28430	99.97
2.30097	99.97
2.31763	99.97
2.33430	99.97
2.35097	99.97
2.36763	99.97
2.38430	99.97
2.40097	99.98
2.41763	99.97
2.43430	99.97
2.45097	99.97
2.46763	99.97
2.48430	99.98
2.50097	99.97
2.51763	99.97
2.53430	99.98
2.55097	99.98
2.56763	99.97
2.58430	99.97
2.60097	99.98
2.61763	99.98
2.63430	99.98
2.65097	99.98
2.66763	99.98
2.68430	99.99
2.70097	99.99
2.71763	99.99
2.73430	99.98
2.75097	99.98
2.76763	99.99
2.78430	99.99
2.80097	99.99
2.81763	99.98
2.83430	99.99
2.85097	99.99
2.86763	99.99
2.88430	100.00
2.90097	99.99
2.91763	100.00
2.93430	100.00
2.95097	100.00
2.96763	100.00
2.98430	100.00
3.00097	100.00
3.01763	100.00
3.03430	100.00
3.05097	100.00
3.06763	100.00
3.08430	100.00
3.10097	100.01
3.11763	100.01
3.13430	100.01
3.15097	100.01
3.16763	100.01
3.18430	100.02
3.20097	100.01
3.21763	100.01
3.23430	100.01
3.25097	100.01
3.26763	100.02
3.28430	100.02
3.30097	100.02
3.31763	100.02
3.33430	100.02
3.35097	100.02
3.36763	100.03
3.38430	100.03
3.40097	100.03
3.41763	100.03
3.43430	100.02
3.45097	100.03
3.46763	100.03
3.48430	100.03
3.50097	100.03
3.51763	100.03
3.53430	100.03
3.55097	100.03
3.56763	100.04
3.58430	100.03
3.60097	100.03
3.61763	100.03
3.63430	100.04
3.65097	100.03
3.66763	100.04
3.68430	100.04
3.70097	100.04
3.71763	100.04
3.73430	100.04
3.75097	100.04
3.76763	100.04
3.78430	100.04
3.80097	100.04
3.81763	100.04
3.83430	100.04
3.85097	100.04
3.86763	100.05
3.88430	100.04
3.90097	100.04
3.91763	100.04
3.93430	100.04
3.95097	100.04
3.96763	100.04
3.98430	100.04

[Status Trace (Carrier Gas Pressure)]
Interval(msec)	1000
# of Points	240
Start Time(min)	0.001
End Time(min)	3.984
Intensity Units	
Intensity Multiplier	1
R.Time (min)	Intensity
0.00097	58.00
0.01763	56.49
0.03430	56.05
0.05097	58.39
0.06763	59.90
0.08430	58.41
0.10097	57.97
0.11763	58.00
0.13430	58.01
0.15097	58.01
0.16763	58.00
0.18430	58.00
0.20097	58.00
0.21763	58.00
0.23430	58.00
0.25097	58.00
0.26763	58.00
0.28430	58.00
0.30097	58.00
0.31763	58.00
0.33430	58.00
0.35097	58.00
0.36763	58.00
0.38430	58.00
0.40097	58.00
0.41763	58.00
0.43430	58.00
0.45097	58.00
0.46763	58.00
0.48430	58.00
0.50097	58.00
0.51763	58.00
0.53430	58.00
0.55097	58.00
0.56763	58.00
0.58430	58.00
0.60097	58.00
0.61763	58.00
0.63430	58.00
0.65097	58.00
0.66763	58.00
0.68430	58.00
0.70097	58.00
0.71763	58.00
0.73430	58.00
0.75097	58.00
0.76763	58.00
0.78430	58.00
0.80097	58.00
0.81763	58.00
0.83430	58.00
0.85097	58.00
0.86763	58.00
0.88430	58.00
0.90097	58.00
0.91763	58.00
0.93430	58.00
0.95097	58.00
0.96763	58.00
0.98430	58.00
1.00097	58.00
1.01763	58.00
1.03430	58.00
1.05097	58.00
1.06763	58.00
1.08430	58.00
1.10097	58.00
1.11763	58.00
1.13430	58.00
1.15097	58.00
1.16763	58.00
1.18430	58.00
1.20097	58.00
1.21763	58.00
1.23430	58.00
1.25097	58.00
1.26763	58.00
1.28430	58.00
1.30097	58.00
1.31763	58.00
1.33430	58.00
1.35097	58.00
1.36763	58.00
1.38430	58.00
1.40097	58.00
1.41763	58.00
1.43430	58.00
1.45097	58.00
1.46763	58.00
1.48430	58.00
1.50097	58.00
1.51763	58.00
1.53430	58.00
1.55097	58.00
1.56763	58.00
1.58430	58.00
1.60097	58.00
1.61763	58.00
1.63430	58.00
1.65097	58.01
1.66763	58.01
1.68430	58.01
1.70097	58.00
1.71763	58.00
1.73430	58.00
1.75097	58.00
1.76763	58.00
1.78430	58.00
1.80097	58.00
1.81763	58.00
1.83430	58.00
1.85097	58.00
1.86763	58.00
1.88430	58.00
1.90097	58.00
1.91763	58.00
1.93430	58.00
1.95097	58.00
1.96763	58.00
1.98430	58.00
2.00097	58.00
2.01763	58.00
2.03430	58.00
2.05097	58.00
2.06763	58.00
2.08430	58.00
2.10097	58.00
2.11763	58.00
2.13430	58.00
2.15097	58.00
2.16763	58.00
2.18430	58.00
2.20097	58.00
2.21763	58.00
2.23430	58.00
2.25097	58.00
2.26763	58.00
2.28430	58.00
2.30097	58.00
2.31763	58.00
2.33430	58.00
2.35097	58.00
2.36763	58.00
2.38430	57.99
2.40097	57.99
2.41763	58.00
2.43430	58.00
2.45097	58.00
2.46763	58.00
2.48430	58.00
2.50097	58.00
2.51763	58.00
2.53430	57.99
2.55097	58.00
2.56763	58.00
2.58430	58.00
2.60097	58.00
2.61763	58.00
2.63430	58.00
2.65097	58.00
2.66763	58.00
2.68430	58.00
2.70097	58.00
2.71763	58.00
2.73430	58.00
2.75097	58.00
2.76763	58.00
2.78430	58.00
2.80097	58.00
2.81763	58.00
2.83430	58.00
2.85097	58.00
2.86763	58.00
2.88430	58.00
2.90097	58.00
2.91763	58.00
2.93430	58.00
2.95097	58.00
2.96763	58.00
2.98430	58.00
3.00097	58.00
3.01763	58.00
3.03430	58.00
3.05097	58.00
3.06763	58.00
3.08430	58.00
3.10097	58.00
3.11763	58.00
3.13430	58.00
3.15097	58.00
3.16763	58.00
3.18430	58.00
3.20097	58.00
3.21763	58.00
3.23430	58.00
3.25097	58.00
3.26763	58.00
3.28430	58.00
3.30097	58.00
3.31763	58.00
3.33430	58.00
3.35097	58.00
3.36763	58.00
3.38430	58.00
3.40097	58.00
3.41763	58.00
3.43430	58.00
3.45097	58.00
3.46763	58.00
3.48430	58.00
3.50097	58.00
3.51763	58.00
3.53430	58.00
3.55097	58.00
3.56763	58.00
3.58430	58.00
3.60097	58.00
3.61763	58.00
3.63430	58.00
3.65097	58.00
3.66763	58.00
3.68430	58.00
3.70097	58.00
3.71763	58.00
3.73430	58.00
3.75097	58.00
3.76763	58.00
3.78430	58.00
3.80097	58.00
3.81763	58.00
3.83430	58.00
3.85097	58.00
3.86763	58.00
3.88430	58.00
3.90097	58.00
3.91763	58.00
3.93430	58.00
3.95097	58.00
3.96763	58.00
3.98430	58.00

[Status Trace (Carrier Gas Flow)]
Interval(msec)	1000
# of Points	240
Start Time(min)	0.001
End Time(min)	3.984
Intensity Units	
Intensity Multiplier	1
R.Time (min)	Intensity
0.00097	34.52
0.01763	34.25
0.03430	34.54
0.05097	34.55
0.06763	34.50
0.08430	34.52
0.10097	34.52
0.11763	34.52
0.13430	34.52
0.15097	34.52
0.16763	34.52
0.18430	34.51
0.20097	34.52
0.21763	34.52
0.23430	34.52
0.25097	34.52
0.26763	34.52
0.28430	34.52
0.30097	34.52
0.31763	34.52
0.33430	34.52
0.35097	34.52
0.36763	34.52
0.38430	34.52
0.40097	34.52
0.41763	34.52
0.43430	34.52
0.45097	34.52
0.46763	34.52
0.48430	34.52
0.50097	34.52
0.51763	34.52
0.53430	34.52
0.55097	34.52
0.56763	34.52
0.58430	34.52
0.60097	34.52
0.61763	34.52
0.63430	34.52
0.65097	34.52
0.66763	34.52
0.68430	34.52
0.70097	34.52
0.71763	34.52
0.73430	34.52
0.75097	34.52
0.76763	34.53
0.78430	34.52
0.80097	34.52
0.81763	34.52
0.83430	34.52
0.85097	34.51
0.86763	34.52
0.88430	34.52
0.90097	34.52
0.91763	34.52
0.93430	34.52
0.95097	34.52
0.96763	34.52
0.98430	34.52
1.00097	34.52
1.01763	34.52
1.03430	34.52
1.05097	34.52
1.06763	34.52
1.08430	34.52
1.10097	34.52
1.11763	34.52
1.13430	34.52
1.15097	34.52
1.16763	34.52
1.18430	34.52
1.20097	34.52
1.21763	34.52
1.23430	34.52
1.25097	34.51
1.26763	34.52
1.28430	34.52
1.30097	34.52
1.31763	34.52
1.33430	34.52
1.35097	34.52
1.36763	34.52
1.38430	34.52
1.40097	34.52
1.41763	34.53
1.43430	34.52
1.45097	34.52
1.46763	34.52
1.48430	34.52
1.50097	34.52
1.51763	34.52
1.53430	34.52
1.55097	34.52
1.56763	34.52
1.58430	34.52
1.60097	34.52
1.61763	34.52
1.63430	34.52
1.65097	34.52
1.66763	34.52
1.68430	34.52
1.70097	34.52
1.71763	34.52
1.73430	34.53
1.75097	34.52
1.76763	34.51
1.78430	34.52
1.80097	34.52
1.81763	34.52
1.83430	34.52
1.85097	34.51
1.86763	34.52
1.88430	34.52
1.90097	34.52
1.91763	34.52
1.93430	34.51
1.95097	34.52
1.96763	34.52
1.98430	34.52
2.00097	34.52
2.01763	34.52
2.03430	34.52
2.05097	34.52
2.06763	34.52
2.08430	34.52
2.10097	34.51
2.11763	34.52
2.13430	34.52
2.15097	34.52
2.16763	34.51
2.18430	34.51
2.20097	34.51
2.21763	34.52
2.23430	34.51
2.25097	34.52
2.26763	34.52
2.28430	34.52
2.30097	34.51
2.31763	34.51
2.33430	34.51
2.35097	34.52
2.36763	34.52
2.38430	34.54
2.40097	34.52
2.41763	34.52
2.43430	34.51
2.45097	34.52
2.46763	34.52
2.48430	34.52
2.50097	34.52
2.51763	34.52
2.53430	34.52
2.55097	34.52
2.56763	34.52
2.58430	34.52
2.60097	34.52
2.61763	34.52
2.63430	34.52
2.65097	34.52
2.66763	34.52
2.68430	34.52
2.70097	34.52
2.71763	34.51
2.73430	34.52
2.75097	34.52
2.76763	34.52
2.78430	34.52
2.80097	34.52
2.81763	34.52
2.83430	34.51
2.85097	34.51
2.86763	34.52
2.88430	34.51
2.90097	34.52
2.91763	34.52
2.93430	34.53
2.95097	34.52
2.96763	34.53
2.98430	34.52
3.00097	34.52
3.01763	34.52
3.03430	34.52
3.05097	34.51
3.06763	34.52
3.08430	34.52
3.10097	34.51
3.11763	34.52
3.13430	34.52
3.15097	34.52
3.16763	34.52
3.18430	34.52
3.20097	34.52
3.21763	34.52
3.23430	34.52
3.25097	34.52
3.26763	34.52
3.28430	34.52
3.30097	34.52
3.31763	34.52
3.33430	34.52
3.35097	34.52
3.36763	34.52
3.38430	34.51
3.40097	34.52
3.41763	34.52
3.43430	34.52
3.45097	34.52
3.46763	34.52
3.48430	34.52
3.50097	34.52
3.51763	34.52
3.53430	34.51
3.55097	34.52
3.56763	34.52
3.58430	34.52
3.60097	34.52
3.61763	34.51
3.63430	34.52
3.65097	34.52
3.66763	34.52
3.68430	34.52
3.70097	34.52
3.71763	34.52
3.73430	34.51
3.75097	34.52
3.76763	34.52
3.78430	34.52
3.80097	34.52
3.81763	34.51
3.83430	34.52
3.85097	34.52
3.86763	34.51
3.88430	34.52
3.90097	34.52
3.91763	34.52
3.93430	34.52
3.95097	34.51
3.96763	34.52
3.98430	34.52

[Status Trace (Column Flow)]
Interval(msec)	1000
# of Points	240
Start Time(min)	0.001
End Time(min)	3.984
Intensity Units	
Intensity Multiplier	1
R.Time (min)	Intensity
0.00097	5.54
0.01763	5.36
0.03430	5.31
0.05097	5.58
0.06763	5.76
0.08430	5.58
0.10097	5.53
0.11763	5.53
0.13430	5.54
0.15097	5.53
0.16763	5.53
0.18430	5.53
0.20097	5.53
0.21763	5.54
0.23430	5.54
0.25097	5.54
0.26763	5.54
0.28430	5.54
0.30097	5.54
0.31763	5.54
0.33430	5.54
0.35097	5.54
0.36763	5.54
0.38430	5.54
0.40097	5.54
0.41763	5.54
0.43430	5.54
0.45097	5.54
0.46763	5.54
0.48430	5.54
0.50097	5.54
0.51763	5.54
0.53430	5.54
0.55097	5.54
0.56763	5.54
0.58430	5.54
0.60097	5.53
0.61763	5.53
0.63430	5.54
0.65097	5.54
0.66763	5.54
0.68430	5.54
0.70097	5.54
0.71763	5.53
0.73430	5.53
0.75097	5.54
0.76763	5.54
0.78430	5.54
0.80097	5.54
0.81763	5.54
0.83430	5.54
0.85097	5.54
0.86763	5.54
0.88430	5.54
0.90097	5.54
0.91763	5.54
0.93430	5.54
0.95097	5.54
0.96763	5.54
0.98430	5.54
1.00097	5.54
1.01763	5.54
1.03430	5.54
1.05097	5.54
1.06763	5.54
1.08430	5.54
1.10097	5.53
1.11763	5.53
1.13430	5.54
1.15097	5.54
1.16763	5.54
1.18430	5.54
1.20097	5.54
1.21763	5.54
1.23430	5.54
1.25097	5.54
1.26763	5.54
1.28430	5.54
1.30097	5.54
1.31763	5.54
1.33430	5.54
1.35097	5.54
1.36763	5.54
1.38430	5.54
1.40097	5.54
1.41763	5.54
1.43430	5.54
1.45097	5.54
1.46763	5.53
1.48430	5.53
1.50097	5.53
1.51763	5.54
1.53430	5.54
1.55097	5.54
1.56763	5.54
1.58430	5.54
1.60097	5.54
1.61763	5.53
1.63430	5.53
1.65097	5.52
1.66763	5.51
1.68430	5.50
1.70097	5.49
1.71763	5.48
1.73430	5.47
1.75097	5.46
1.76763	5.45
1.78430	5.44
1.80097	5.43
1.81763	5.42
1.83430	5.41
1.85097	5.40
1.86763	5.39
1.88430	5.38
1.90097	5.37
1.91763	5.36
1.93430	5.35
1.95097	5.34
1.96763	5.33
1.98430	5.32
2.00097	5.31
2.01763	5.30
2.03430	5.29
2.05097	5.28
2.06763	5.27
2.08430	5.26
2.10097	5.25
2.11763	5.24
2.13430	5.23
2.15097	5.22
2.16763	5.21
2.18430	5.20
2.20097	5.19
2.21763	5.18
2.23430	5.17
2.25097	5.17
2.26763	5.16
2.28430	5.15
2.30097	5.14
2.31763	5.13
2.33430	5.12
2.35097	5.11
2.36763	5.10
2.38430	5.10
2.40097	5.10
2.41763	5.10
2.43430	5.10
2.45097	5.10
2.46763	5.10
2.48430	5.10
2.50097	5.10
2.51763	5.10
2.53430	5.10
2.55097	5.10
2.56763	5.10
2.58430	5.10
2.60097	5.10
2.61763	5.10
2.63430	5.10
2.65097	5.10
2.66763	5.10
2.68430	5.10
2.70097	5.10
2.71763	5.09
2.73430	5.09
2.75097	5.10
2.76763	5.10
2.78430	5.10
2.80097	5.09
2.81763	5.09
2.83430	5.09
2.85097	5.09
2.86763	5.09
2.88430	5.09
2.90097	5.09
2.91763	5.09
2.93430	5.09
2.95097	5.09
2.96763	5.09
2.98430	5.09
3.00097	5.09
3.01763	5.09
3.03430	5.09
3.05097	5.09
3.06763	5.09
3.08430	5.09
3.10097	5.09
3.11763	5.09
3.13430	5.09
3.15097	5.09
3.16763	5.09
3.18430	5.09
3.20097	5.09
3.21763	5.09
3.23430	5.09
3.25097	5.09
3.26763	5.09
3.28430	5.09
3.30097	5.09
3.31763	5.09
3.33430	5.09
3.35097	5.09
3.36763	5.09
3.38430	5.09
3.40097	5.09
3.41763	5.09
3.43430	5.09
3.45097	5.09
3.46763	5.09
3.48430	5.09
3.50097	5.09
3.51763	5.09
3.53430	5.09
3.55097	5.09
3.56763	5.09
3.58430	5.09
3.60097	5.09
3.61763	5.09
3.63430	5.09
3.65097	5.09
3.66763	5.09
3.68430	5.09
3.70097	5.09
3.71763	5.09
3.73430	5.09
3.75097	5.09
3.76763	5.09
3.78430	5.09
3.80097	5.09
3.81763	5.09
3.83430	5.09
3.85097	5.09
3.86763	5.09
3.88430	5.09
3.90097	5.09
3.91763	5.09
3.93430	5.09
3.95097	5.09
3.96763	5.09
3.98430	5.09

[Status Trace (Linear Velocity)]
Interval(msec)	1000
# of Points	240
Start Time(min)	0.001
End Time(min)	3.984
Intensity Units	
Intensity Multiplier	1
R.Time (min)	Intensity
0.00097	39.02
0.01763	38.03
0.03430	37.74
0.05097	39.27
0.06763	40.26
0.08430	39.29
0.10097	39.00
0.11763	39.02
0.13430	39.02
0.15097	39.02
0.16763	39.02
0.18430	39.02
0.20097	39.02
0.21763	39.02
0.23430	39.02
0.25097	39.02
0.26763	39.02
0.28430	39.02
0.30097	39.02
0.31763	39.02
0.33430	39.02
0.35097	39.02
0.36763	39.02
0.38430	39.02
0.40097	39.02
0.41763	39.02
0.43430	39.02
0.45097	39.02
0.46763	39.02
0.48430	39.02
0.50097	39.02
0.51763	39.02
0.53430	39.02
0.55097	39.02
0.56763	39.02
0.58430	39.02
0.60097	39.02
0.61763	39.02
0.63430	39.02
0.65097	39.02
0.66763	39.02
0.68430	39.02
0.70097	39.02
0.71763	39.02
0.73430	39.02
0.75097	39.02
0.76763	39.02
0.78430	39.02
0.80097	39.02
0.81763	39.02
0.83430	39.02
0.85097	39.02
0.86763	39.02
0.88430	39.02
0.90097	39.02
0.91763	39.02
0.93430	39.02
0.95097	39.02
0.96763	39.02
0.98430	39.02
1.00097	39.02
1.01763	39.02
1.03430	39.02
1.05097	39.02
1.06763	39.02
1.08430	39.02
1.10097	39.02
1.11763	39.02
1.13430	39.02
1.15097	39.02
1.16763	39.02
1.18430	39.02
1.20097	39.02
1.21763	39.02
1.23430	39.02
1.25097	39.02
1.26763	39.02
1.28430	39.02
1.30097	39.02
1.31763	39.02
1.33430	39.02
1.35097	39.02
1.36763	39.02
1.38430	39.02
1.40097	39.02
1.41763	39.02
1.43430	39.02
1.45097	39.02
1.46763	39.02
1.48430	39.02
1.50097	39.02
1.51763	39.02
1.53430	39.02
1.55097	39.02
1.56763	39.02
1.58430	39.02
1.60097	39.02
1.61763	39.01
1.63430	39.00
1.65097	38.98
1.66763	38.95
1.68430	38.91
1.70097	38.87
1.71763	38.84
1.73430	38.81
1.75097	38.78
1.76763	38.75
1.78430	38.71
1.80097	38.68
1.81763	38.65
1.83430	38.62
1.85097	38.59
1.86763	38.56
1.88430	38.53
1.90097	38.50
1.91763	38.47
1.93430	38.44
1.95097	38.41
1.96763	38.38
1.98430	38.35
2.00097	38.32
2.01763	38.28
2.03430	38.25
2.05097	38.22
2.06763	38.20
2.08430	38.17
2.10097	38.14
2.11763	38.11
2.13430	38.08
2.15097	38.05
2.16763	38.02
2.18430	37.99
2.20097	37.96
2.21763	37.93
2.23430	37.90
2.25097	37.87
2.26763	37.84
2.28430	37.81
2.30097	37.78
2.31763	37.75
2.33430	37.72
2.35097	37.70
2.36763	37.67
2.38430	37.66
2.40097	37.66
2.41763	37.66
2.43430	37.66
2.45097	37.66
2.46763	37.66
2.48430	37.66
2.50097	37.66
2.51763	37.66
2.53430	37.65
2.55097	37.66
2.56763	37.66
2.58430	37.66
2.60097	37.65
2.61763	37.65
2.63430	37.65
2.65097	37.65
2.66763	37.65
2.68430	37.65
2.70097	37.65
2.71763	37.65
2.73430	37.65
2.75097	37.65
2.76763	37.65
2.78430	37.65
2.80097	37.65
2.81763	37.65
2.83430	37.64
2.85097	37.64
2.86763	37.64
2.88430	37.64
2.90097	37.64
2.91763	37.64
2.93430	37.64
2.95097	37.64
2.96763	37.64
2.98430	37.64
3.00097	37.64
3.01763	37.64
3.03430	37.64
3.05097	37.64
3.06763	37.64
3.08430	37.64
3.10097	37.64
3.11763	37.64
3.13430	37.63
3.15097	37.63
3.16763	37.63
3.18430	37.63
3.20097	37.63
3.21763	37.63
3.23430	37.63
3.25097	37.63
3.26763	37.63
3.28430	37.63
3.30097	37.63
3.31763	37.63
3.33430	37.63
3.35097	37.63
3.36763	37.63
3.38430	37.63
3.40097	37.63
3.41763	37.63
3.43430	37.63
3.45097	37.63
3.46763	37.63
3.48430	37.63
3.50097	37.63
3.51763	37.63
3.53430	37.63
3.55097	37.63
3.56763	37.64
3.58430	37.64
3.60097	37.64
3.61763	37.64
3.63430	37.64
3.65097	37.63
3.66763	37.63
3.68430	37.63
3.70097	37.63
3.71763	37.63
3.73430	37.63
3.75097	37.63
3.76763	37.63
3.78430	37.63
3.80097	37.63
3.81763	37.63
3.83430	37.63
3.85097	37.63
3.86763	37.63
3.88430	37.63
3.90097	37.63
3.91763	37.63
3.93430	37.63
3.95097	37.63
3.96763	37.63
3.98430	37.63

