[Header]
Application Name	LabSolutions
Version	5.110
Data File Name	C:\Users\User\Desktop\GC Analyses\Jack\Nachusa Grasslands Sampling\T3 Timepoint July 12th\T3_07122022_076.gcd
Output Date	3/14/2023
Output Time	3:43:35 PM

[File Information]
Type	Data File
Generated	3/13/2023 10:59:15 PM
Generated by	System Administrator
Modified	3/13/2023 11:06:05 PM
Modified by	System Administrator

[Sample Information]
Operator Name	System Administrator
Acquired	3/13/2023 11:02:04 PM
Sample Type	0:Unknown
Level	0
Sample Name	076
Sample ID	076
ISTD Amount1	1
ISTD Amount2	1
ISTD Amount3	1
ISTD Amount4	1
ISTD Amount5	1
ISTD Amount6	1
ISTD Amount7	1
ISTD Amount8	1
ISTD Amount9	1
ISTD Amount10	1
ISTD Amount11	1
ISTD Amount12	1
ISTD Amount13	1
ISTD Amount14	1
ISTD Amount15	1
ISTD Amount16	1
ISTD Amount17	1
ISTD Amount18	1
ISTD Amount19	1
ISTD Amount20	1
ISTD Amount21	1
ISTD Amount22	1
ISTD Amount23	1
ISTD Amount24	1
ISTD Amount25	1
ISTD Amount26	1
ISTD Amount27	1
ISTD Amount28	1
ISTD Amount29	1
ISTD Amount30	1
ISTD Amount31	1
ISTD Amount32	1
Sample Amount	1
Dilution Factor	1
Vial#	75
Injection Volume	1
Injection Count	1
Bar Code	

[Original Files]
Data File	C:\Users\User\Desktop\GC Analyses\Jack\Nachusa Grasslands Sampling\T3 Timepoint July 12th\T3_07122022_076.gcd
Method File	C:\LabSolutions\Data\GHG_4min_2022\ghg3_togas_w_acet_4 min_new_int.gcm
Batch File	C:\LabSolutions\Data\AutoSamplerTesting\T3_07122022.gcb
Report Format File	c:\LabSolutions\System\DEFAULT.lsr

[File Description]


[Configuration]
Instrument Name	C0B7VH3-Instrument1
Instrument #	1
Line #	1
# of Detectors	3
Detector ID	DET#1	DET#2	DET#3
Detector Name	FID	PTCD	ECD
# of Channels	1	1	1

[Peak Table(Ch1)]
# of Peaks	3
Peak#	R.Time	I.Time	F.Time	Area	Height	A/H	Conc.	Mark	ID#	Name	k'	Plate #	Plate Ht.	Tailing	Resolution	Sep.Factor	Area Ratio	Height Ratio	Conc. %	Norm Conc.
1	1.476	1.417	1.534	26243	12970	2.023	185.274	   	1	CO	0.000	9657	15.533	1.247	0.000	0.000	0	0	18.793	18.793
2	1.571	1.538	1.611	3755	1999	1.879	72.613	   	2	CH4	0.065	12356	12.140	1.087	1.635	0.000	0	0	7.365	7.365
3	1.996	1.934	2.429	2900604	1396538	2.077	727.973	   	3	CO2	0.353	17440	8.601	1.323	7.271	5.462	0	0	73.841	73.841

[Peak Table(Ch2)]
# of Peaks	0

[Peak Table(Ch3)]
# of Peaks	5
Peak#	R.Time	I.Time	F.Time	Area	Height	A/H	Conc.	Mark	ID#	Name	k'	Plate #	Plate Ht.	Tailing	Resolution	Sep.Factor	Area Ratio	Height Ratio	Conc. %	Norm Conc.
1	2.458	2.326	2.510	2164	703	3.078	0.000	   			0.000	11845	12.663	0.000	0.000	0.000	0	0	0.000	0.000
2	2.528	2.510	2.579	935	338	2.764	0.000	 V 			0.028	7756	19.339	0.000	0.679	0.000	0	0	0.000	0.000
3	2.601	2.579	2.675	486	138	3.532	0.000	 V 			0.058	3293	45.555	0.000	0.495	2.053	0	0	0.000	0.000
4	2.880	2.700	3.041	19511	4851	4.022	0.498	   	1	N2O	0.172	12852	11.671	1.560	1.970	2.949	0	0	100.000	100.000
5	3.283	3.045	3.995	22903	701	32.681	0.000	   	2	SF6	0.336	211	709.901	1.947	0.803	1.957	0	0	0.000	0.000

[Compound Results(Ch1)]
# of IDs	6
ID#	Name	R.Time	Area	Height	Conc.	Curve	3rd	2nd	1st	Constant	Area Ratio	Height Ratio	Conc. %	Norm Conc.
1	CO	1.476	26243	12970	185.274	Linear	0.000000e+00	0.000000e+00	1.416423e+002	0.000000e+00	0	0	18.793	18.793
2	CH4	1.571	3755	1999	72.613	Linear	0.000000e+00	0.000000e+00	5.171738e+001	0.000000e+00	0	0	7.365	7.365
3	CO2	1.996	2900604	1396538	727.973	Linear	0.000000e+00	0.000000e+00	3.984494e+003	0.000000e+00	0	0	73.841	73.841
4	Ethylene	0.000	0	0	0.000	Linear	0.000000e+00	0.000000e+00	0.000000e+00	0.000000e+00	0	0	0.000	0.000
5	Acetylene	0.000	0	0	0.000	Linear	0.000000e+00	0.000000e+00	0.000000e+00	0.000000e+00	0	0	0.000	0.000
6	Ethane	0.000	0	0	0.000	Linear	0.000000e+00	0.000000e+00	0.000000e+00	0.000000e+00	0	0	0.000	0.000

[Compound Results(Ch2)]
# of IDs	5
ID#	Name	R.Time	Area	Height	Conc.	Curve	3rd	2nd	1st	Constant	Area Ratio	Height Ratio	Conc. %	Norm Conc.
1	Hydrogen	0.000	0	0	0.000	Linear	0.000000e+00	0.000000e+00	0.000000e+00	0.000000e+00	0	0	0.000	0.000
2	Oxygen	0.000	0	0	0.000	Linear	0.000000e+00	0.000000e+00	0.000000e+00	0.000000e+00	0	0	0.000	0.000
3	Nitrogen	0.000	0	0	0.000	Linear	0.000000e+00	0.000000e+00	0.000000e+00	0.000000e+00	0	0	0.000	0.000
4	Methane	0.000	0	0	0.000	Linear	0.000000e+00	0.000000e+00	0.000000e+00	0.000000e+00	0	0	0.000	0.000
5	Carbon Monoxide	0.000	0	0	0.000	Linear	0.000000e+00	0.000000e+00	0.000000e+00	0.000000e+00	0	0	0.000	0.000

[Compound Results(Ch3)]
# of IDs	2
ID#	Name	R.Time	Area	Height	Conc.	Curve	3rd	2nd	1st	Constant	Area Ratio	Height Ratio	Conc. %	Norm Conc.
1	N2O	2.880	19511	4851	0.498	Linear	0.000000e+00	0.000000e+00	3.915173e+004	0.000000e+00	0	0	100.000	100.000
2	SF6	3.283	22903	701	0.000	Linear	0.000000e+00	0.000000e+00	0.000000e+00	0.000000e+00	0	0	0.000	0.000

[Group Results(Ch1)]
# of Groups	0

[Group Results(Ch2)]
# of Groups	0

[Group Results(Ch3)]
# of Groups	0

[Chromatogram (Ch1)]
Interval(msec)	220
# of Points	1091
Start Time(min)	0.002
End Time(min)	3.998
R.Time (min)	Intensity
0.00167	15
0.00533	22
0.00900	29
0.01267	29
0.01633	23
0.02000	18
0.02367	14
0.02733	10
0.03100	9
0.03467	14
0.03833	25
0.04200	35
0.04567	42
0.04933	48
0.05300	52
0.05667	51
0.06033	45
0.06400	41
0.06767	39
0.07133	43
0.07500	49
0.07867	54
0.08233	57
0.08600	57
0.08967	55
0.09333	50
0.09700	49
0.10067	49
0.10433	48
0.10800	48
0.11167	47
0.11533	46
0.11900	47
0.12267	51
0.12633	58
0.13000	67
0.13367	72
0.13733	70
0.14100	65
0.14467	65
0.14833	69
0.15200	73
0.15567	77
0.15933	80
0.16300	82
0.16667	81
0.17033	83
0.17400	86
0.17767	86
0.18133	80
0.18500	73
0.18867	69
0.19233	65
0.19600	62
0.19967	58
0.20333	59
0.20700	60
0.21067	61
0.21433	62
0.21800	62
0.22167	64
0.22533	64
0.22900	65
0.23267	65
0.23633	65
0.24000	62
0.24367	58
0.24733	56
0.25100	58
0.25467	59
0.25833	58
0.26200	58
0.26567	59
0.26933	57
0.27300	47
0.27667	35
0.28033	25
0.28400	18
0.28767	15
0.29133	13
0.29500	8
0.29867	-1
0.30233	-7
0.30600	-9
0.30967	-10
0.31333	-4
0.31700	10
0.32067	27
0.32433	34
0.32800	29
0.33167	22
0.33533	21
0.33900	23
0.34267	24
0.34633	24
0.35000	26
0.35367	29
0.35733	30
0.36100	31
0.36467	30
0.36833	32
0.37200	35
0.37567	39
0.37933	38
0.38300	34
0.38667	30
0.39033	26
0.39400	24
0.39767	24
0.40133	25
0.40500	30
0.40867	36
0.41233	42
0.41600	48
0.41967	56
0.42333	63
0.42700	64
0.43067	61
0.43433	58
0.43800	60
0.44167	62
0.44533	59
0.44900	58
0.45267	57
0.45633	54
0.46000	53
0.46367	56
0.46733	59
0.47100	58
0.47467	56
0.47833	54
0.48200	51
0.48567	49
0.48933	44
0.49300	41
0.49667	36
0.50033	29
0.50400	24
0.50767	19
0.51133	18
0.51500	26
0.51867	32
0.52233	31
0.52600	32
0.52967	35
0.53333	38
0.53700	39
0.54067	40
0.54433	45
0.54800	55
0.55167	59
0.55533	55
0.55900	49
0.56267	47
0.56633	48
0.57000	51
0.57367	54
0.57733	58
0.58100	61
0.58467	62
0.58833	58
0.59200	52
0.59567	46
0.59933	40
0.60300	33
0.60667	28
0.61033	26
0.61400	26
0.61767	28
0.62133	31
0.62500	33
0.62867	33
0.63233	34
0.63600	37
0.63967	42
0.64333	46
0.64700	45
0.65067	44
0.65433	44
0.65800	46
0.66167	52
0.66533	60
0.66900	68
0.67267	73
0.67633	69
0.68000	63
0.68367	55
0.68733	51
0.69100	54
0.69467	56
0.69833	57
0.70200	59
0.70567	61
0.70933	68
0.71300	80
0.71667	94
0.72033	100
0.72400	98
0.72767	93
0.73133	86
0.73500	77
0.73867	72
0.74233	69
0.74600	66
0.74967	60
0.75333	54
0.75700	49
0.76067	49
0.76433	52
0.76800	54
0.77167	58
0.77533	62
0.77900	66
0.78267	69
0.78633	72
0.79000	76
0.79367	78
0.79733	80
0.80100	83
0.80467	86
0.80833	91
0.81200	94
0.81567	92
0.81933	90
0.82300	92
0.82667	93
0.83033	88
0.83400	83
0.83767	81
0.84133	80
0.84500	82
0.84867	84
0.85233	84
0.85600	77
0.85967	67
0.86333	58
0.86700	52
0.87067	52
0.87433	56
0.87800	62
0.88167	68
0.88533	74
0.88900	78
0.89267	81
0.89633	81
0.90000	75
0.90367	69
0.90733	67
0.91100	67
0.91467	64
0.91833	59
0.92200	60
0.92567	67
0.92933	76
0.93300	80
0.93667	81
0.94033	86
0.94400	90
0.94767	86
0.95133	76
0.95500	66
0.95867	61
0.96233	58
0.96600	57
0.96967	56
0.97333	51
0.97700	50
0.98067	55
0.98433	61
0.98800	63
0.99167	56
0.99533	46
0.99900	47
1.00267	61
1.00633	72
1.01000	72
1.01367	65
1.01733	53
1.02100	45
1.02467	45
1.02833	46
1.03200	48
1.03567	46
1.03933	44
1.04300	42
1.04667	41
1.05033	43
1.05400	47
1.05767	50
1.06133	52
1.06500	58
1.06867	67
1.07233	72
1.07600	71
1.07967	66
1.08333	57
1.08700	47
1.09067	42
1.09433	36
1.09800	31
1.10167	25
1.10533	17
1.10900	8
1.11267	7
1.11633	10
1.12000	15
1.12367	21
1.12733	27
1.13100	33
1.13467	40
1.13833	43
1.14200	40
1.14567	37
1.14933	39
1.15300	41
1.15667	47
1.16033	51
1.16400	52
1.16767	51
1.17133	48
1.17500	48
1.17867	51
1.18233	52
1.18600	44
1.18967	34
1.19333	32
1.19700	30
1.20067	28
1.20433	26
1.20800	25
1.21167	26
1.21533	29
1.21900	31
1.22267	31
1.22633	31
1.23000	33
1.23367	31
1.23733	29
1.24100	28
1.24467	28
1.24833	27
1.25200	26
1.25567	26
1.25933	32
1.26300	40
1.26667	43
1.27033	38
1.27400	29
1.27767	23
1.28133	19
1.28500	17
1.28867	18
1.29233	24
1.29600	32
1.29967	35
1.30333	31
1.30700	24
1.31067	22
1.31433	28
1.31800	30
1.32167	28
1.32533	26
1.32900	23
1.33267	17
1.33633	9
1.34000	4
1.34367	2
1.34733	1
1.35100	4
1.35467	10
1.35833	7
1.36200	8
1.36567	15
1.36933	22
1.37300	34
1.37667	41
1.38033	44
1.38400	44
1.38767	42
1.39133	38
1.39500	26
1.39867	14
1.40233	7
1.40600	2
1.40967	-1
1.41333	-0
1.41700	2
1.42067	8
1.42433	12
1.42800	17
1.43167	23
1.43533	28
1.43900	34
1.44267	73
1.44633	230
1.45000	687
1.45367	1791
1.45733	3768
1.46100	6288
1.46467	8770
1.46833	10818
1.47200	12252
1.47567	12942
1.47933	12768
1.48300	11721
1.48667	10000
1.49033	7966
1.49400	5986
1.49767	4294
1.50133	2971
1.50500	1992
1.50867	1293
1.51233	807
1.51600	480
1.51967	265
1.52333	128
1.52700	40
1.53067	-19
1.53433	-57
1.53800	-76
1.54167	-47
1.54533	81
1.54900	345
1.55267	718
1.55633	1118
1.56000	1472
1.56367	1745
1.56733	1910
1.57100	1936
1.57467	1803
1.57833	1533
1.58200	1192
1.58567	854
1.58933	569
1.59300	356
1.59667	206
1.60033	101
1.60400	30
1.60767	-17
1.61133	-47
1.61500	-62
1.61867	-63
1.62233	-59
1.62600	-56
1.62967	-55
1.63333	-56
1.63700	-58
1.64067	-60
1.64433	-63
1.64800	-67
1.65167	-70
1.65533	-70
1.65900	-69
1.66267	-67
1.66633	-62
1.67000	-53
1.67367	-46
1.67733	-41
1.68100	-39
1.68467	-38
1.68833	-40
1.69200	-44
1.69567	-47
1.69933	-50
1.70300	-52
1.70667	-58
1.71033	-61
1.71400	-61
1.71767	-62
1.72133	-67
1.72500	-74
1.72867	-78
1.73233	-85
1.73600	-86
1.73967	-79
1.74333	-73
1.74700	-68
1.75067	-63
1.75433	-62
1.75800	-57
1.76167	-52
1.76533	-50
1.76900	-53
1.77267	-58
1.77633	-63
1.78000	-63
1.78367	-61
1.78733	-63
1.79100	-62
1.79467	-60
1.79833	-53
1.80200	-45
1.80567	-44
1.80933	-48
1.81300	-52
1.81667	-56
1.82033	-60
1.82400	-63
1.82767	-68
1.83133	-73
1.83500	-77
1.83867	-80
1.84233	-80
1.84600	-76
1.84967	-69
1.85333	-68
1.85700	-63
1.86067	-54
1.86433	-48
1.86800	-47
1.87167	-48
1.87533	-48
1.87900	-47
1.88267	-45
1.88633	-46
1.89000	-52
1.89367	-55
1.89733	-52
1.90100	-43
1.90467	-36
1.90833	-35
1.91200	-39
1.91567	-52
1.91933	-66
1.92300	-73
1.92667	-72
1.93033	-69
1.93400	-65
1.93767	-57
1.94133	-49
1.94500	-40
1.94867	-28
1.95233	-0
1.95600	149
1.95967	1056
1.96333	5558
1.96700	22642
1.97067	72131
1.97433	181763
1.97800	368673
1.98167	619626
1.98533	892336
1.98900	1136685
1.99267	1312735
1.99633	1396521
2.00000	1380728
2.00367	1274681
2.00733	1102942
2.01100	899074
2.01467	695467
2.01833	515270
2.02200	369439
2.02567	258963
2.02933	179144
2.03300	123339
2.03667	85151
2.04033	59345
2.04400	42007
2.04767	30345
2.05133	22455
2.05500	17055
2.05867	13298
2.06233	10641
2.06600	8723
2.06967	7300
2.07333	6213
2.07700	5363
2.08067	4687
2.08433	4142
2.08800	3697
2.09167	3332
2.09533	3030
2.09900	2777
2.10267	2557
2.10633	2367
2.11000	2205
2.11367	2062
2.11733	1933
2.12100	1818
2.12467	1717
2.12833	1630
2.13200	1551
2.13567	1478
2.13933	1406
2.14300	1334
2.14667	1263
2.15033	1198
2.15400	1135
2.15767	1076
2.16133	1025
2.16500	984
2.16867	950
2.17233	917
2.17600	883
2.17967	853
2.18333	827
2.18700	808
2.19067	791
2.19433	774
2.19800	756
2.20167	736
2.20533	714
2.20900	690
2.21267	669
2.21633	650
2.22000	633
2.22367	618
2.22733	605
2.23100	597
2.23467	593
2.23833	588
2.24200	576
2.24567	564
2.24933	559
2.25300	553
2.25667	540
2.26033	516
2.26400	486
2.26767	458
2.27133	442
2.27500	438
2.27867	437
2.28233	435
2.28600	432
2.28967	425
2.29333	415
2.29700	407
2.30067	400
2.30433	397
2.30800	394
2.31167	391
2.31533	388
2.31900	384
2.32267	380
2.32633	374
2.33000	369
2.33367	369
2.33733	372
2.34100	373
2.34467	368
2.34833	361
2.35200	356
2.35567	359
2.35933	363
2.36300	360
2.36667	353
2.37033	346
2.37400	343
2.37767	341
2.38133	342
2.38500	339
2.38867	334
2.39233	326
2.39600	318
2.39967	314
2.40333	311
2.40700	312
2.41067	315
2.41433	318
2.41800	317
2.42167	315
2.42533	318
2.42900	320
2.43267	319
2.43633	316
2.44000	311
2.44367	309
2.44733	307
2.45100	308
2.45467	311
2.45833	318
2.46200	319
2.46567	312
2.46933	303
2.47300	296
2.47667	290
2.48033	291
2.48400	296
2.48767	301
2.49133	306
2.49500	309
2.49867	307
2.50233	301
2.50600	295
2.50967	290
2.51333	287
2.51700	289
2.52067	294
2.52433	300
2.52800	306
2.53167	310
2.53533	313
2.53900	308
2.54267	297
2.54633	283
2.55000	274
2.55367	275
2.55733	277
2.56100	273
2.56467	266
2.56833	261
2.57200	263
2.57567	267
2.57933	272
2.58300	273
2.58667	273
2.59033	272
2.59400	270
2.59767	272
2.60133	281
2.60500	293
2.60867	296
2.61233	292
2.61600	286
2.61967	281
2.62333	280
2.62700	282
2.63067	283
2.63433	285
2.63800	287
2.64167	291
2.64533	298
2.64900	299
2.65267	295
2.65633	289
2.66000	285
2.66367	287
2.66733	292
2.67100	294
2.67467	295
2.67833	296
2.68200	297
2.68567	297
2.68933	294
2.69300	293
2.69667	295
2.70033	298
2.70400	294
2.70767	288
2.71133	288
2.71500	290
2.71867	293
2.72233	296
2.72600	298
2.72967	296
2.73333	297
2.73700	298
2.74067	296
2.74433	295
2.74800	302
2.75167	313
2.75533	319
2.75900	317
2.76267	313
2.76633	311
2.77000	315
2.77367	318
2.77733	315
2.78100	307
2.78467	300
2.78833	298
2.79200	300
2.79567	305
2.79933	313
2.80300	321
2.80667	328
2.81033	333
2.81400	333
2.81767	326
2.82133	317
2.82500	307
2.82867	299
2.83233	296
2.83600	298
2.83967	306
2.84333	317
2.84700	327
2.85067	332
2.85433	328
2.85800	323
2.86167	321
2.86533	320
2.86900	319
2.87267	317
2.87633	309
2.88000	302
2.88367	305
2.88733	311
2.89100	316
2.89467	318
2.89833	320
2.90200	324
2.90567	329
2.90933	333
2.91300	338
2.91667	348
2.92033	357
2.92400	360
2.92767	359
2.93133	353
2.93500	340
2.93867	327
2.94233	319
2.94600	311
2.94967	302
2.95333	300
2.95700	300
2.96067	302
2.96433	310
2.96800	319
2.97167	330
2.97533	341
2.97900	349
2.98267	352
2.98633	349
2.99000	345
2.99367	343
2.99733	341
3.00100	338
3.00467	338
3.00833	339
3.01200	342
3.01567	344
3.01933	342
3.02300	338
3.02667	336
3.03033	339
3.03400	344
3.03767	349
3.04133	352
3.04500	353
3.04867	352
3.05233	350
3.05600	349
3.05967	346
3.06333	345
3.06700	346
3.07067	347
3.07433	349
3.07800	352
3.08167	351
3.08533	351
3.08900	350
3.09267	346
3.09633	342
3.10000	341
3.10367	342
3.10733	345
3.11100	341
3.11467	335
3.11833	332
3.12200	334
3.12567	338
3.12933	344
3.13300	344
3.13667	342
3.14033	341
3.14400	341
3.14767	339
3.15133	336
3.15500	334
3.15867	335
3.16233	337
3.16600	338
3.16967	338
3.17333	335
3.17700	332
3.18067	334
3.18433	340
3.18800	348
3.19167	355
3.19533	360
3.19900	361
3.20267	363
3.20633	367
3.21000	369
3.21367	368
3.21733	361
3.22100	348
3.22467	335
3.22833	324
3.23200	319
3.23567	317
3.23933	316
3.24300	314
3.24667	311
3.25033	307
3.25400	307
3.25767	308
3.26133	311
3.26500	313
3.26867	315
3.27233	316
3.27600	315
3.27967	315
3.28333	317
3.28700	322
3.29067	327
3.29433	331
3.29800	332
3.30167	330
3.30533	333
3.30900	334
3.31267	336
3.31633	338
3.32000	338
3.32367	338
3.32733	336
3.33100	335
3.33467	336
3.33833	337
3.34200	334
3.34567	328
3.34933	321
3.35300	315
3.35667	310
3.36033	306
3.36400	307
3.36767	310
3.37133	311
3.37500	309
3.37867	312
3.38233	319
3.38600	323
3.38967	323
3.39333	320
3.39700	317
3.40067	316
3.40433	317
3.40800	318
3.41167	317
3.41533	319
3.41900	319
3.42267	317
3.42633	314
3.43000	310
3.43367	307
3.43733	303
3.44100	300
3.44467	302
3.44833	300
3.45200	301
3.45567	304
3.45933	305
3.46300	304
3.46667	299
3.47033	292
3.47400	293
3.47767	300
3.48133	307
3.48500	310
3.48867	307
3.49233	298
3.49600	289
3.49967	285
3.50333	288
3.50700	292
3.51067	294
3.51433	289
3.51800	281
3.52167	276
3.52533	276
3.52900	281
3.53267	289
3.53633	295
3.54000	294
3.54367	291
3.54733	293
3.55100	300
3.55467	304
3.55833	303
3.56200	298
3.56567	298
3.56933	298
3.57300	298
3.57667	297
3.58033	293
3.58400	288
3.58767	285
3.59133	288
3.59500	298
3.59867	314
3.60233	323
3.60600	318
3.60967	304
3.61333	290
3.61700	284
3.62067	281
3.62433	275
3.62800	274
3.63167	273
3.63533	267
3.63900	265
3.64267	268
3.64633	275
3.65000	286
3.65367	294
3.65733	294
3.66100	294
3.66467	298
3.66833	306
3.67200	308
3.67567	301
3.67933	287
3.68300	274
3.68667	265
3.69033	260
3.69400	259
3.69767	261
3.70133	264
3.70500	268
3.70867	273
3.71233	279
3.71600	283
3.71967	279
3.72333	274
3.72700	271
3.73067	269
3.73433	268
3.73800	264
3.74167	261
3.74533	263
3.74900	268
3.75267	276
3.75633	283
3.76000	290
3.76367	296
3.76733	302
3.77100	307
3.77467	305
3.77833	295
3.78200	280
3.78567	269
3.78933	266
3.79300	268
3.79667	271
3.80033	273
3.80400	274
3.80767	270
3.81133	259
3.81500	247
3.81867	241
3.82233	237
3.82600	239
3.82967	243
3.83333	245
3.83700	248
3.84067	249
3.84433	249
3.84800	251
3.85167	258
3.85533	264
3.85900	272
3.86267	286
3.86633	292
3.87000	282
3.87367	267
3.87733	255
3.88100	246
3.88467	239
3.88833	235
3.89200	234
3.89567	234
3.89933	235
3.90300	242
3.90667	252
3.91033	260
3.91400	265
3.91767	267
3.92133	265
3.92500	262
3.92867	263
3.93233	266
3.93600	265
3.93967	263
3.94333	261
3.94700	261
3.95067	261
3.95433	262
3.95800	259
3.96167	254
3.96533	250
3.96900	251
3.97267	257
3.97633	263
3.98000	264
3.98367	259
3.98733	257
3.99100	259
3.99467	263
3.99833	265

[Chromatogram (Ch2)]
Interval(msec)	220
# of Points	1091
Start Time(min)	0.002
End Time(min)	3.998
R.Time (min)	Intensity
0.00167	-0
0.00533	-0
0.00900	0
0.01267	0
0.01633	0
0.02000	0
0.02367	0
0.02733	0
0.03100	0
0.03467	0
0.03833	0
0.04200	1
0.04567	1
0.04933	1
0.05300	1
0.05667	2
0.06033	2
0.06400	2
0.06767	2
0.07133	2
0.07500	2
0.07867	2
0.08233	2
0.08600	2
0.08967	2
0.09333	2
0.09700	2
0.10067	2
0.10433	2
0.10800	3
0.11167	3
0.11533	4
0.11900	4
0.12267	4
0.12633	4
0.13000	4
0.13367	4
0.13733	3
0.14100	3
0.14467	2
0.14833	2
0.15200	1
0.15567	1
0.15933	1
0.16300	0
0.16667	0
0.17033	-0
0.17400	-0
0.17767	-0
0.18133	-0
0.18500	-0
0.18867	-1
0.19233	-1
0.19600	-1
0.19967	-1
0.20333	-0
0.20700	-0
0.21067	0
0.21433	0
0.21800	0
0.22167	0
0.22533	0
0.22900	1
0.23267	1
0.23633	1
0.24000	1
0.24367	1
0.24733	1
0.25100	0
0.25467	0
0.25833	0
0.26200	0
0.26567	0
0.26933	0
0.27300	0
0.27667	0
0.28033	-0
0.28400	-0
0.28767	-0
0.29133	-0
0.29500	0
0.29867	0
0.30233	0
0.30600	-0
0.30967	-0
0.31333	-1
0.31700	-1
0.32067	-1
0.32433	-1
0.32800	-1
0.33167	-1
0.33533	-1
0.33900	-1
0.34267	-1
0.34633	-1
0.35000	-1
0.35367	-1
0.35733	-1
0.36100	-1
0.36467	-1
0.36833	-1
0.37200	-1
0.37567	-1
0.37933	-1
0.38300	-1
0.38667	-1
0.39033	-1
0.39400	-0
0.39767	0
0.40133	1
0.40500	1
0.40867	1
0.41233	1
0.41600	2
0.41967	2
0.42333	2
0.42700	1
0.43067	1
0.43433	1
0.43800	1
0.44167	1
0.44533	0
0.44900	0
0.45267	0
0.45633	-0
0.46000	-0
0.46367	-1
0.46733	-1
0.47100	-1
0.47467	-1
0.47833	-1
0.48200	-2
0.48567	-2
0.48933	-2
0.49300	-2
0.49667	-2
0.50033	-2
0.50400	-3
0.50767	-3
0.51133	-3
0.51500	-3
0.51867	-3
0.52233	-2
0.52600	-2
0.52967	-2
0.53333	-1
0.53700	-1
0.54067	-1
0.54433	-1
0.54800	-0
0.55167	-0
0.55533	-0
0.55900	-0
0.56267	-0
0.56633	-0
0.57000	0
0.57367	0
0.57733	0
0.58100	0
0.58467	0
0.58833	0
0.59200	0
0.59567	-0
0.59933	-0
0.60300	-0
0.60667	-1
0.61033	-1
0.61400	-1
0.61767	-2
0.62133	-2
0.62500	-2
0.62867	-2
0.63233	-2
0.63600	-2
0.63967	-2
0.64333	-3
0.64700	-3
0.65067	-3
0.65433	-3
0.65800	-3
0.66167	-3
0.66533	-3
0.66900	-3
0.67267	-3
0.67633	-3
0.68000	-3
0.68367	-3
0.68733	-3
0.69100	-3
0.69467	-3
0.69833	-3
0.70200	-3
0.70567	-3
0.70933	-2
0.71300	-2
0.71667	-2
0.72033	-2
0.72400	-2
0.72767	-2
0.73133	-2
0.73500	-2
0.73867	-1
0.74233	-1
0.74600	-1
0.74967	-0
0.75333	1
0.75700	1
0.76067	1
0.76433	1
0.76800	1
0.77167	1
0.77533	1
0.77900	0
0.78267	0
0.78633	-0
0.79000	-1
0.79367	-1
0.79733	-1
0.80100	-1
0.80467	-1
0.80833	-1
0.81200	-1
0.81567	-1
0.81933	-1
0.82300	-1
0.82667	-1
0.83033	-1
0.83400	-1
0.83767	-1
0.84133	-1
0.84500	-1
0.84867	-1
0.85233	-1
0.85600	-1
0.85967	-1
0.86333	-1
0.86700	-0
0.87067	0
0.87433	0
0.87800	0
0.88167	1
0.88533	1
0.88900	0
0.89267	0
0.89633	0
0.90000	-0
0.90367	-1
0.90733	-1
0.91100	-1
0.91467	-2
0.91833	-2
0.92200	-2
0.92567	-2
0.92933	-3
0.93300	-3
0.93667	-3
0.94033	-3
0.94400	-3
0.94767	-3
0.95133	-3
0.95500	-4
0.95867	-4
0.96233	-4
0.96600	-4
0.96967	-4
0.97333	-4
0.97700	-4
0.98067	-4
0.98433	-4
0.98800	-3
0.99167	-3
0.99533	-3
0.99900	-2
1.00267	-2
1.00633	-2
1.01000	-2
1.01367	-2
1.01733	-1
1.02100	-1
1.02467	-1
1.02833	-1
1.03200	-0
1.03567	-0
1.03933	-0
1.04300	-1
1.04667	-1
1.05033	-1
1.05400	-1
1.05767	-1
1.06133	-1
1.06500	-1
1.06867	-1
1.07233	-1
1.07600	-1
1.07967	-1
1.08333	-1
1.08700	-1
1.09067	-1
1.09433	-1
1.09800	-2
1.10167	-2
1.10533	-2
1.10900	-3
1.11267	-3
1.11633	-3
1.12000	-3
1.12367	-3
1.12733	-3
1.13100	-3
1.13467	-3
1.13833	-3
1.14200	-3
1.14567	-3
1.14933	-3
1.15300	-3
1.15667	-4
1.16033	-3
1.16400	-3
1.16767	-3
1.17133	-4
1.17500	-4
1.17867	-4
1.18233	-4
1.18600	-4
1.18967	-4
1.19333	-4
1.19700	-4
1.20067	-4
1.20433	-4
1.20800	-4
1.21167	-4
1.21533	-4
1.21900	-4
1.22267	-4
1.22633	-4
1.23000	-4
1.23367	-4
1.23733	-3
1.24100	-3
1.24467	-3
1.24833	-3
1.25200	-3
1.25567	-3
1.25933	-3
1.26300	-3
1.26667	-2
1.27033	-2
1.27400	-2
1.27767	-2
1.28133	-2
1.28500	-2
1.28867	-2
1.29233	-2
1.29600	-2
1.29967	-2
1.30333	-2
1.30700	-3
1.31067	-3
1.31433	-2
1.31800	-2
1.32167	-2
1.32533	-2
1.32900	-1
1.33267	-1
1.33633	-1
1.34000	-1
1.34367	-1
1.34733	-1
1.35100	-1
1.35467	-1
1.35833	-1
1.36200	-1
1.36567	-1
1.36933	-1
1.37300	-1
1.37667	-2
1.38033	-2
1.38400	-3
1.38767	-3
1.39133	-3
1.39500	-4
1.39867	-4
1.40233	-4
1.40600	-4
1.40967	-4
1.41333	-4
1.41700	-4
1.42067	-4
1.42433	-3
1.42800	-3
1.43167	-3
1.43533	-3
1.43900	-3
1.44267	-2
1.44633	-2
1.45000	-2
1.45367	-2
1.45733	-2
1.46100	-2
1.46467	-2
1.46833	-1
1.47200	-1
1.47567	-1
1.47933	-1
1.48300	-1
1.48667	-1
1.49033	-1
1.49400	-1
1.49767	-1
1.50133	-1
1.50500	-1
1.50867	-2
1.51233	-2
1.51600	-2
1.51967	-3
1.52333	-3
1.52700	-3
1.53067	-3
1.53433	-4
1.53800	-4
1.54167	-4
1.54533	-4
1.54900	-4
1.55267	-4
1.55633	-4
1.56000	-5
1.56367	-5
1.56733	-5
1.57100	-5
1.57467	-5
1.57833	-5
1.58200	-5
1.58567	-5
1.58933	-5
1.59300	-5
1.59667	-5
1.60033	-5
1.60400	-6
1.60767	-7
1.61133	-9
1.61500	-11
1.61867	-13
1.62233	-15
1.62600	-18
1.62967	-21
1.63333	-25
1.63700	-28
1.64067	-32
1.64433	-35
1.64800	-39
1.65167	-42
1.65533	-46
1.65900	-50
1.66267	-54
1.66633	-58
1.67000	-62
1.67367	-67
1.67733	-72
1.68100	-77
1.68467	-82
1.68833	-86
1.69200	-90
1.69567	-94
1.69933	-97
1.70300	-99
1.70667	-102
1.71033	-103
1.71400	-105
1.71767	-105
1.72133	-106
1.72500	-107
1.72867	-107
1.73233	-108
1.73600	-108
1.73967	-108
1.74333	-108
1.74700	-108
1.75067	-108
1.75433	-108
1.75800	-108
1.76167	-109
1.76533	-110
1.76900	-111
1.77267	-112
1.77633	-113
1.78000	-114
1.78367	-115
1.78733	-115
1.79100	-115
1.79467	-115
1.79833	-114
1.80200	-114
1.80567	-113
1.80933	-113
1.81300	-113
1.81667	-113
1.82033	-114
1.82400	-114
1.82767	-115
1.83133	-115
1.83500	-116
1.83867	-117
1.84233	-117
1.84600	-117
1.84967	-116
1.85333	-116
1.85700	-116
1.86067	-115
1.86433	-114
1.86800	-114
1.87167	-113
1.87533	-113
1.87900	-113
1.88267	-113
1.88633	-113
1.89000	-114
1.89367	-114
1.89733	-115
1.90100	-115
1.90467	-115
1.90833	-115
1.91200	-115
1.91567	-114
1.91933	-114
1.92300	-114
1.92667	-113
1.93033	-113
1.93400	-112
1.93767	-112
1.94133	-112
1.94500	-111
1.94867	-111
1.95233	-111
1.95600	-111
1.95967	-111
1.96333	-110
1.96700	-109
1.97067	-109
1.97433	-109
1.97800	-109
1.98167	-110
1.98533	-110
1.98900	-110
1.99267	-110
1.99633	-109
2.00000	-109
2.00367	-108
2.00733	-108
2.01100	-108
2.01467	-108
2.01833	-108
2.02200	-108
2.02567	-107
2.02933	-107
2.03300	-107
2.03667	-106
2.04033	-106
2.04400	-105
2.04767	-104
2.05133	-103
2.05500	-103
2.05867	-102
2.06233	-102
2.06600	-102
2.06967	-102
2.07333	-102
2.07700	-102
2.08067	-102
2.08433	-102
2.08800	-101
2.09167	-100
2.09533	-100
2.09900	-99
2.10267	-99
2.10633	-99
2.11000	-99
2.11367	-98
2.11733	-98
2.12100	-98
2.12467	-97
2.12833	-97
2.13200	-97
2.13567	-97
2.13933	-97
2.14300	-97
2.14667	-97
2.15033	-97
2.15400	-97
2.15767	-96
2.16133	-95
2.16500	-95
2.16867	-94
2.17233	-94
2.17600	-94
2.17967	-94
2.18333	-94
2.18700	-94
2.19067	-93
2.19433	-93
2.19800	-92
2.20167	-92
2.20533	-91
2.20900	-91
2.21267	-90
2.21633	-90
2.22000	-90
2.22367	-90
2.22733	-90
2.23100	-90
2.23467	-89
2.23833	-89
2.24200	-88
2.24567	-88
2.24933	-87
2.25300	-87
2.25667	-87
2.26033	-87
2.26400	-87
2.26767	-87
2.27133	-86
2.27500	-86
2.27867	-85
2.28233	-85
2.28600	-84
2.28967	-83
2.29333	-83
2.29700	-82
2.30067	-82
2.30433	-83
2.30800	-83
2.31167	-83
2.31533	-83
2.31900	-84
2.32267	-83
2.32633	-83
2.33000	-82
2.33367	-81
2.33733	-80
2.34100	-79
2.34467	-78
2.34833	-77
2.35200	-77
2.35567	-76
2.35933	-76
2.36300	-76
2.36667	-75
2.37033	-74
2.37400	-72
2.37767	-70
2.38133	-67
2.38500	-63
2.38867	-59
2.39233	-54
2.39600	-49
2.39967	-44
2.40333	-40
2.40700	-35
2.41067	-31
2.41433	-27
2.41800	-24
2.42167	-21
2.42533	-19
2.42900	-17
2.43267	-16
2.43633	-14
2.44000	-13
2.44367	-12
2.44733	-11
2.45100	-9
2.45467	-8
2.45833	-7
2.46200	-6
2.46567	-5
2.46933	-4
2.47300	-3
2.47667	-2
2.48033	-0
2.48400	1
2.48767	2
2.49133	3
2.49500	4
2.49867	4
2.50233	4
2.50600	5
2.50967	6
2.51333	7
2.51700	8
2.52067	10
2.52433	11
2.52800	12
2.53167	13
2.53533	14
2.53900	15
2.54267	15
2.54633	15
2.55000	15
2.55367	15
2.55733	15
2.56100	15
2.56467	15
2.56833	15
2.57200	15
2.57567	15
2.57933	15
2.58300	15
2.58667	15
2.59033	15
2.59400	15
2.59767	15
2.60133	15
2.60500	15
2.60867	16
2.61233	16
2.61600	17
2.61967	17
2.62333	18
2.62700	18
2.63067	18
2.63433	18
2.63800	18
2.64167	18
2.64533	18
2.64900	18
2.65267	18
2.65633	18
2.66000	18
2.66367	18
2.66733	19
2.67100	19
2.67467	19
2.67833	20
2.68200	20
2.68567	20
2.68933	20
2.69300	20
2.69667	20
2.70033	20
2.70400	20
2.70767	21
2.71133	21
2.71500	21
2.71867	22
2.72233	22
2.72600	23
2.72967	23
2.73333	24
2.73700	24
2.74067	25
2.74433	25
2.74800	24
2.75167	24
2.75533	24
2.75900	24
2.76267	24
2.76633	24
2.77000	24
2.77367	25
2.77733	25
2.78100	25
2.78467	26
2.78833	26
2.79200	26
2.79567	26
2.79933	25
2.80300	25
2.80667	25
2.81033	25
2.81400	25
2.81767	25
2.82133	25
2.82500	25
2.82867	25
2.83233	25
2.83600	25
2.83967	24
2.84333	23
2.84700	21
2.85067	18
2.85433	12
2.85800	3
2.86167	-9
2.86533	-25
2.86900	-45
2.87267	-70
2.87633	-99
2.88000	-132
2.88367	-170
2.88733	-211
2.89100	-256
2.89467	-304
2.89833	-355
2.90200	-408
2.90567	-462
2.90933	-517
2.91300	-573
2.91667	-629
2.92033	-684
2.92400	-738
2.92767	-791
2.93133	-842
2.93500	-894
2.93867	-951
2.94233	-1009
2.94600	-1060
2.94967	-1094
2.95333	-1104
2.95700	-1087
2.96067	-1047
2.96433	-988
2.96800	-918
2.97167	-840
2.97533	-759
2.97900	-679
2.98267	-602
2.98633	-529
2.99000	-463
2.99367	-403
2.99733	-348
3.00100	-300
3.00467	-257
3.00833	-220
3.01200	-187
3.01567	-159
3.01933	-134
3.02300	-113
3.02667	-94
3.03033	-78
3.03400	-65
3.03767	-54
3.04133	-44
3.04500	-36
3.04867	-29
3.05233	-23
3.05600	-18
3.05967	-14
3.06333	-10
3.06700	-7
3.07067	-4
3.07433	-2
3.07800	0
3.08167	2
3.08533	4
3.08900	6
3.09267	7
3.09633	8
3.10000	9
3.10367	10
3.10733	10
3.11100	11
3.11467	12
3.11833	12
3.12200	13
3.12567	13
3.12933	14
3.13300	14
3.13667	15
3.14033	15
3.14400	16
3.14767	16
3.15133	17
3.15500	17
3.15867	17
3.16233	18
3.16600	18
3.16967	18
3.17333	18
3.17700	19
3.18067	19
3.18433	19
3.18800	19
3.19167	19
3.19533	19
3.19900	19
3.20267	19
3.20633	19
3.21000	19
3.21367	19
3.21733	19
3.22100	20
3.22467	20
3.22833	20
3.23200	20
3.23567	20
3.23933	20
3.24300	20
3.24667	20
3.25033	20
3.25400	20
3.25767	20
3.26133	20
3.26500	20
3.26867	20
3.27233	20
3.27600	20
3.27967	20
3.28333	21
3.28700	21
3.29067	21
3.29433	22
3.29800	23
3.30167	23
3.30533	24
3.30900	24
3.31267	25
3.31633	25
3.32000	25
3.32367	26
3.32733	26
3.33100	26
3.33467	26
3.33833	27
3.34200	27
3.34567	27
3.34933	27
3.35300	27
3.35667	27
3.36033	27
3.36400	27
3.36767	27
3.37133	27
3.37500	27
3.37867	27
3.38233	27
3.38600	28
3.38967	28
3.39333	28
3.39700	28
3.40067	28
3.40433	28
3.40800	27
3.41167	27
3.41533	27
3.41900	27
3.42267	27
3.42633	27
3.43000	27
3.43367	27
3.43733	27
3.44100	26
3.44467	26
3.44833	26
3.45200	26
3.45567	26
3.45933	26
3.46300	26
3.46667	26
3.47033	26
3.47400	26
3.47767	26
3.48133	26
3.48500	25
3.48867	25
3.49233	25
3.49600	25
3.49967	25
3.50333	25
3.50700	25
3.51067	25
3.51433	25
3.51800	25
3.52167	25
3.52533	25
3.52900	25
3.53267	24
3.53633	24
3.54000	24
3.54367	24
3.54733	24
3.55100	24
3.55467	24
3.55833	25
3.56200	25
3.56567	25
3.56933	25
3.57300	25
3.57667	25
3.58033	26
3.58400	26
3.58767	26
3.59133	26
3.59500	26
3.59867	26
3.60233	26
3.60600	26
3.60967	26
3.61333	26
3.61700	26
3.62067	26
3.62433	26
3.62800	26
3.63167	26
3.63533	26
3.63900	26
3.64267	25
3.64633	25
3.65000	25
3.65367	25
3.65733	25
3.66100	25
3.66467	26
3.66833	26
3.67200	26
3.67567	26
3.67933	26
3.68300	26
3.68667	26
3.69033	25
3.69400	25
3.69767	24
3.70133	24
3.70500	24
3.70867	23
3.71233	23
3.71600	23
3.71967	23
3.72333	23
3.72700	23
3.73067	23
3.73433	24
3.73800	24
3.74167	24
3.74533	24
3.74900	24
3.75267	24
3.75633	24
3.76000	24
3.76367	24
3.76733	24
3.77100	24
3.77467	24
3.77833	24
3.78200	24
3.78567	24
3.78933	24
3.79300	24
3.79667	24
3.80033	24
3.80400	24
3.80767	24
3.81133	24
3.81500	24
3.81867	24
3.82233	24
3.82600	24
3.82967	24
3.83333	24
3.83700	24
3.84067	24
3.84433	24
3.84800	24
3.85167	24
3.85533	24
3.85900	24
3.86267	24
3.86633	24
3.87000	24
3.87367	24
3.87733	24
3.88100	24
3.88467	24
3.88833	24
3.89200	24
3.89567	24
3.89933	24
3.90300	24
3.90667	24
3.91033	24
3.91400	24
3.91767	24
3.92133	24
3.92500	24
3.92867	24
3.93233	24
3.93600	24
3.93967	24
3.94333	24
3.94700	24
3.95067	25
3.95433	25
3.95800	25
3.96167	25
3.96533	25
3.96900	25
3.97267	25
3.97633	25
3.98000	25
3.98367	25
3.98733	25
3.99100	25
3.99467	25
3.99833	25

[Chromatogram (Ch3)]
Interval(msec)	220
# of Points	1091
Start Time(min)	0.002
End Time(min)	3.998
R.Time (min)	Intensity
0.00167	-1
0.00533	-1
0.00900	-0
0.01267	-0
0.01633	1
0.02000	3
0.02367	3
0.02733	1
0.03100	-0
0.03467	-2
0.03833	-3
0.04200	-5
0.04567	-6
0.04933	-6
0.05300	-3
0.05667	-1
0.06033	-2
0.06400	-2
0.06767	-2
0.07133	-4
0.07500	-5
0.07867	-3
0.08233	-0
0.08600	1
0.08967	1
0.09333	2
0.09700	2
0.10067	-0
0.10433	-2
0.10800	-2
0.11167	-2
0.11533	-2
0.11900	-3
0.12267	-3
0.12633	-1
0.13000	-0
0.13367	-1
0.13733	-2
0.14100	-5
0.14467	-8
0.14833	-10
0.15200	-9
0.15567	-9
0.15933	-9
0.16300	-9
0.16667	-7
0.17033	-4
0.17400	-1
0.17767	-0
0.18133	-0
0.18500	0
0.18867	2
0.19233	3
0.19600	4
0.19967	4
0.20333	3
0.20700	2
0.21067	2
0.21433	3
0.21800	0
0.22167	-2
0.22533	-2
0.22900	-3
0.23267	-4
0.23633	-4
0.24000	-7
0.24367	-9
0.24733	-10
0.25100	-11
0.25467	-9
0.25833	-7
0.26200	-7
0.26567	-7
0.26933	-7
0.27300	-7
0.27667	-7
0.28033	-6
0.28400	-6
0.28767	-6
0.29133	-5
0.29500	-6
0.29867	-5
0.30233	-5
0.30600	-4
0.30967	-3
0.31333	-2
0.31700	-1
0.32067	-2
0.32433	-2
0.32800	-3
0.33167	-5
0.33533	-7
0.33900	-7
0.34267	-5
0.34633	-3
0.35000	-2
0.35367	-2
0.35733	-3
0.36100	-3
0.36467	-4
0.36833	-4
0.37200	-7
0.37567	-9
0.37933	-8
0.38300	-8
0.38667	-8
0.39033	-7
0.39400	-6
0.39767	-5
0.40133	-6
0.40500	-8
0.40867	-9
0.41233	-10
0.41600	-7
0.41967	-6
0.42333	-7
0.42700	-7
0.43067	-6
0.43433	-7
0.43800	-6
0.44167	-7
0.44533	-6
0.44900	-6
0.45267	-8
0.45633	-11
0.46000	-11
0.46367	-11
0.46733	-12
0.47100	-12
0.47467	-13
0.47833	-15
0.48200	-16
0.48567	-16
0.48933	-17
0.49300	-16
0.49667	-15
0.50033	-14
0.50400	-13
0.50767	-12
0.51133	-12
0.51500	-13
0.51867	-16
0.52233	-16
0.52600	-15
0.52967	-15
0.53333	-15
0.53700	-14
0.54067	-14
0.54433	-14
0.54800	-14
0.55167	-14
0.55533	-14
0.55900	-15
0.56267	-16
0.56633	-14
0.57000	-13
0.57367	-14
0.57733	-13
0.58100	-13
0.58467	-15
0.58833	-17
0.59200	-19
0.59567	-19
0.59933	-19
0.60300	-18
0.60667	-20
0.61033	-20
0.61400	-17
0.61767	-15
0.62133	-13
0.62500	-15
0.62867	-16
0.63233	-18
0.63600	-19
0.63967	-20
0.64333	-19
0.64700	-20
0.65067	-19
0.65433	-16
0.65800	-15
0.66167	-17
0.66533	-19
0.66900	-20
0.67267	-20
0.67633	-19
0.68000	-18
0.68367	-15
0.68733	-14
0.69100	-14
0.69467	-14
0.69833	-14
0.70200	-15
0.70567	-14
0.70933	-13
0.71300	-10
0.71667	-9
0.72033	-9
0.72400	-8
0.72767	-8
0.73133	-9
0.73500	-10
0.73867	-10
0.74233	-8
0.74600	-4
0.74967	-2
0.75333	-2
0.75700	-3
0.76067	-4
0.76433	-4
0.76800	-4
0.77167	-6
0.77533	-7
0.77900	-5
0.78267	-4
0.78633	-3
0.79000	-3
0.79367	-3
0.79733	-4
0.80100	-3
0.80467	-2
0.80833	-2
0.81200	-1
0.81567	1
0.81933	1
0.82300	0
0.82667	-0
0.83033	-1
0.83400	-2
0.83767	-1
0.84133	-1
0.84500	-1
0.84867	-2
0.85233	-1
0.85600	0
0.85967	0
0.86333	-2
0.86700	-3
0.87067	-3
0.87433	-3
0.87800	-3
0.88167	-3
0.88533	-3
0.88900	-4
0.89267	-5
0.89633	-6
0.90000	-6
0.90367	-5
0.90733	-6
0.91100	-5
0.91467	-5
0.91833	-5
0.92200	-4
0.92567	-2
0.92933	-0
0.93300	-1
0.93667	-4
0.94033	-6
0.94400	-5
0.94767	-5
0.95133	-6
0.95500	-6
0.95867	-7
0.96233	-8
0.96600	-9
0.96967	-11
0.97333	-12
0.97700	-11
0.98067	-9
0.98433	-6
0.98800	-4
0.99167	-3
0.99533	-4
0.99900	-3
1.00267	-4
1.00633	-6
1.01000	-8
1.01367	-8
1.01733	-8
1.02100	-8
1.02467	-8
1.02833	-8
1.03200	-7
1.03567	-7
1.03933	-8
1.04300	-7
1.04667	-6
1.05033	-7
1.05400	-10
1.05767	-11
1.06133	-9
1.06500	-6
1.06867	-5
1.07233	-5
1.07600	-4
1.07967	-4
1.08333	-6
1.08700	-7
1.09067	-10
1.09433	-11
1.09800	-11
1.10167	-10
1.10533	-9
1.10900	-9
1.11267	-9
1.11633	-10
1.12000	-11
1.12367	-12
1.12733	-10
1.13100	-9
1.13467	-8
1.13833	-8
1.14200	-9
1.14567	-10
1.14933	-10
1.15300	-8
1.15667	-8
1.16033	-9
1.16400	-8
1.16767	-8
1.17133	-9
1.17500	-9
1.17867	-9
1.18233	-9
1.18600	-7
1.18967	-6
1.19333	-7
1.19700	-7
1.20067	-5
1.20433	-3
1.20800	-3
1.21167	-4
1.21533	-4
1.21900	-2
1.22267	-1
1.22633	-1
1.23000	-1
1.23367	1
1.23733	3
1.24100	2
1.24467	-2
1.24833	-4
1.25200	-4
1.25567	-3
1.25933	-2
1.26300	-1
1.26667	3
1.27033	5
1.27400	7
1.27767	7
1.28133	7
1.28500	7
1.28867	8
1.29233	7
1.29600	6
1.29967	4
1.30333	2
1.30700	1
1.31067	3
1.31433	4
1.31800	4
1.32167	4
1.32533	5
1.32900	4
1.33267	2
1.33633	2
1.34000	2
1.34367	4
1.34733	5
1.35100	8
1.35467	8
1.35833	8
1.36200	7
1.36567	6
1.36933	8
1.37300	10
1.37667	9
1.38033	9
1.38400	8
1.38767	7
1.39133	7
1.39500	7
1.39867	9
1.40233	9
1.40600	6
1.40967	5
1.41333	5
1.41700	7
1.42067	9
1.42433	9
1.42800	8
1.43167	9
1.43533	9
1.43900	10
1.44267	10
1.44633	10
1.45000	9
1.45367	9
1.45733	10
1.46100	10
1.46467	11
1.46833	11
1.47200	11
1.47567	10
1.47933	9
1.48300	7
1.48667	6
1.49033	4
1.49400	4
1.49767	5
1.50133	6
1.50500	5
1.50867	2
1.51233	-1
1.51600	-2
1.51967	-2
1.52333	-1
1.52700	1
1.53067	1
1.53433	2
1.53800	2
1.54167	2
1.54533	-0
1.54900	-1
1.55267	-1
1.55633	-2
1.56000	-1
1.56367	2
1.56733	3
1.57100	2
1.57467	2
1.57833	2
1.58200	2
1.58567	-0
1.58933	-1
1.59300	-1
1.59667	-2
1.60033	-2
1.60400	-1
1.60767	-2
1.61133	-3
1.61500	-3
1.61867	-4
1.62233	-3
1.62600	-2
1.62967	-2
1.63333	0
1.63700	2
1.64067	1
1.64433	3
1.64800	4
1.65167	6
1.65533	7
1.65900	9
1.66267	10
1.66633	10
1.67000	10
1.67367	9
1.67733	10
1.68100	11
1.68467	11
1.68833	10
1.69200	11
1.69567	10
1.69933	9
1.70300	8
1.70667	7
1.71033	10
1.71400	12
1.71767	14
1.72133	14
1.72500	15
1.72867	14
1.73233	15
1.73600	13
1.73967	12
1.74333	12
1.74700	13
1.75067	13
1.75433	14
1.75800	16
1.76167	17
1.76533	19
1.76900	22
1.77267	22
1.77633	19
1.78000	19
1.78367	21
1.78733	22
1.79100	23
1.79467	23
1.79833	22
1.80200	22
1.80567	24
1.80933	27
1.81300	30
1.81667	31
1.82033	32
1.82400	32
1.82767	35
1.83133	38
1.83500	37
1.83867	35
1.84233	35
1.84600	37
1.84967	40
1.85333	42
1.85700	45
1.86067	46
1.86433	46
1.86800	45
1.87167	48
1.87533	49
1.87900	50
1.88267	50
1.88633	51
1.89000	53
1.89367	55
1.89733	57
1.90100	57
1.90467	56
1.90833	57
1.91200	58
1.91567	61
1.91933	64
1.92300	66
1.92667	68
1.93033	70
1.93400	70
1.93767	70
1.94133	69
1.94500	68
1.94867	70
1.95233	71
1.95600	71
1.95967	73
1.96333	73
1.96700	74
1.97067	74
1.97433	76
1.97800	76
1.98167	77
1.98533	78
1.98900	78
1.99267	79
1.99633	80
2.00000	83
2.00367	84
2.00733	86
2.01100	87
2.01467	88
2.01833	89
2.02200	91
2.02567	91
2.02933	91
2.03300	91
2.03667	92
2.04033	93
2.04400	96
2.04767	100
2.05133	104
2.05500	104
2.05867	105
2.06233	105
2.06600	108
2.06967	110
2.07333	111
2.07700	112
2.08067	113
2.08433	114
2.08800	115
2.09167	115
2.09533	114
2.09900	114
2.10267	116
2.10633	117
2.11000	119
2.11367	120
2.11733	120
2.12100	122
2.12467	125
2.12833	131
2.13200	136
2.13567	139
2.13933	142
2.14300	141
2.14667	142
2.15033	144
2.15400	143
2.15767	143
2.16133	143
2.16500	144
2.16867	145
2.17233	147
2.17600	150
2.17967	152
2.18333	154
2.18700	156
2.19067	158
2.19433	159
2.19800	163
2.20167	166
2.20533	167
2.20900	168
2.21267	170
2.21633	170
2.22000	170
2.22367	171
2.22733	171
2.23100	171
2.23467	173
2.23833	174
2.24200	173
2.24567	173
2.24933	174
2.25300	175
2.25667	177
2.26033	179
2.26400	179
2.26767	179
2.27133	181
2.27500	183
2.27867	182
2.28233	182
2.28600	183
2.28967	185
2.29333	189
2.29700	192
2.30067	195
2.30433	194
2.30800	192
2.31167	193
2.31533	194
2.31900	195
2.32267	197
2.32633	197
2.33000	197
2.33367	196
2.33733	194
2.34100	196
2.34467	199
2.34833	200
2.35200	200
2.35567	202
2.35933	203
2.36300	203
2.36667	202
2.37033	204
2.37400	205
2.37767	207
2.38133	207
2.38500	206
2.38867	205
2.39233	205
2.39600	208
2.39967	210
2.40333	210
2.40700	211
2.41067	215
2.41433	220
2.41800	223
2.42167	224
2.42533	225
2.42900	225
2.43267	226
2.43633	227
2.44000	230
2.44367	292
2.44733	447
2.45100	614
2.45467	751
2.45833	824
2.46200	821
2.46567	772
2.46933	716
2.47300	672
2.47667	643
2.48033	619
2.48400	580
2.48767	531
2.49133	479
2.49500	429
2.49867	391
2.50233	364
2.50600	349
2.50967	345
2.51333	353
2.51700	372
2.52067	393
2.52433	410
2.52800	419
2.53167	415
2.53533	395
2.53900	365
2.54267	330
2.54633	295
2.55000	262
2.55367	235
2.55733	213
2.56100	197
2.56467	183
2.56833	173
2.57200	168
2.57567	164
2.57933	161
2.58300	161
2.58667	164
2.59033	168
2.59400	171
2.59767	175
2.60133	176
2.60500	172
2.60867	167
2.61233	158
2.61600	147
2.61967	137
2.62333	129
2.62700	120
2.63067	112
2.63433	104
2.63800	96
2.64167	88
2.64533	78
2.64900	65
2.65267	52
2.65633	38
2.66000	26
2.66367	16
2.66733	9
2.67100	2
2.67467	-5
2.67833	-9
2.68200	-12
2.68567	-13
2.68933	-15
2.69300	-15
2.69667	-14
2.70033	-12
2.70400	-10
2.70767	-9
2.71133	-7
2.71500	-3
2.71867	-0
2.72233	5
2.72600	10
2.72967	15
2.73333	17
2.73700	21
2.74067	25
2.74433	29
2.74800	33
2.75167	37
2.75533	41
2.75900	45
2.76267	49
2.76633	54
2.77000	58
2.77367	61
2.77733	63
2.78100	64
2.78467	67
2.78833	72
2.79200	77
2.79567	82
2.79933	86
2.80300	89
2.80667	94
2.81033	100
2.81400	108
2.81767	116
2.82133	127
2.82500	147
2.82867	183
2.83233	253
2.83600	374
2.83967	566
2.84333	852
2.84700	1240
2.85067	1722
2.85433	2278
2.85800	2868
2.86167	3448
2.86533	3970
2.86900	4391
2.87267	4682
2.87633	4833
2.88000	4845
2.88367	4734
2.88733	4528
2.89100	4252
2.89467	3933
2.89833	3592
2.90200	3247
2.90567	2912
2.90933	2594
2.91300	2300
2.91667	2035
2.92033	1796
2.92400	1582
2.92767	1390
2.93133	1223
2.93500	1076
2.93867	946
2.94233	832
2.94600	733
2.94967	647
2.95333	571
2.95700	508
2.96067	452
2.96433	402
2.96800	359
2.97167	323
2.97533	292
2.97900	264
2.98267	241
2.98633	222
2.99000	203
2.99367	185
2.99733	170
3.00100	159
3.00467	149
3.00833	139
3.01200	128
3.01567	121
3.01933	116
3.02300	115
3.02667	111
3.03033	97
3.03400	60
3.03767	20
3.04133	-2
3.04500	-0
3.04867	21
3.05233	53
3.05600	92
3.05967	138
3.06333	189
3.06700	241
3.07067	290
3.07433	335
3.07800	379
3.08167	419
3.08533	455
3.08900	485
3.09267	511
3.09633	534
3.10000	556
3.10367	574
3.10733	589
3.11100	600
3.11467	609
3.11833	617
3.12200	624
3.12567	633
3.12933	640
3.13300	646
3.13667	650
3.14033	653
3.14400	656
3.14767	659
3.15133	661
3.15500	663
3.15867	664
3.16233	667
3.16600	673
3.16967	678
3.17333	684
3.17700	690
3.18067	695
3.18433	700
3.18800	704
3.19167	709
3.19533	715
3.19900	719
3.20267	725
3.20633	731
3.21000	736
3.21367	740
3.21733	748
3.22100	755
3.22467	762
3.22833	766
3.23200	772
3.23567	778
3.23933	784
3.24300	788
3.24667	793
3.25033	797
3.25400	801
3.25767	804
3.26133	809
3.26500	813
3.26867	816
3.27233	819
3.27600	822
3.27967	826
3.28333	829
3.28700	830
3.29067	831
3.29433	830
3.29800	827
3.30167	826
3.30533	826
3.30900	827
3.31267	827
3.31633	827
3.32000	824
3.32367	823
3.32733	822
3.33100	819
3.33467	817
3.33833	812
3.34200	809
3.34567	807
3.34933	806
3.35300	805
3.35667	803
3.36033	800
3.36400	798
3.36767	796
3.37133	794
3.37500	793
3.37867	791
3.38233	789
3.38600	786
3.38967	784
3.39333	783
3.39700	782
3.40067	780
3.40433	777
3.40800	773
3.41167	768
3.41533	765
3.41900	763
3.42267	761
3.42633	758
3.43000	756
3.43367	756
3.43733	756
3.44100	753
3.44467	751
3.44833	750
3.45200	749
3.45567	748
3.45933	747
3.46300	743
3.46667	742
3.47033	741
3.47400	740
3.47767	739
3.48133	739
3.48500	737
3.48867	736
3.49233	734
3.49600	734
3.49967	734
3.50333	735
3.50700	733
3.51067	733
3.51433	732
3.51800	730
3.52167	726
3.52533	725
3.52900	726
3.53267	724
3.53633	723
3.54000	725
3.54367	723
3.54733	721
3.55100	721
3.55467	717
3.55833	715
3.56200	716
3.56567	717
3.56933	716
3.57300	716
3.57667	715
3.58033	713
3.58400	711
3.58767	708
3.59133	705
3.59500	703
3.59867	702
3.60233	700
3.60600	698
3.60967	696
3.61333	694
3.61700	692
3.62067	691
3.62433	692
3.62800	693
3.63167	694
3.63533	694
3.63900	690
3.64267	686
3.64633	682
3.65000	679
3.65367	675
3.65733	675
3.66100	674
3.66467	672
3.66833	670
3.67200	665
3.67567	661
3.67933	658
3.68300	655
3.68667	654
3.69033	652
3.69400	651
3.69767	649
3.70133	647
3.70500	645
3.70867	642
3.71233	640
3.71600	637
3.71967	635
3.72333	636
3.72700	635
3.73067	634
3.73433	631
3.73800	630
3.74167	627
3.74533	623
3.74900	620
3.75267	617
3.75633	615
3.76000	612
3.76367	610
3.76733	607
3.77100	606
3.77467	606
3.77833	607
3.78200	607
3.78567	603
3.78933	598
3.79300	598
3.79667	599
3.80033	599
3.80400	595
3.80767	591
3.81133	586
3.81500	584
3.81867	582
3.82233	577
3.82600	574
3.82967	574
3.83333	577
3.83700	575
3.84067	572
3.84433	570
3.84800	571
3.85167	569
3.85533	568
3.85900	568
3.86267	566
3.86633	561
3.87000	557
3.87367	554
3.87733	553
3.88100	551
3.88467	550
3.88833	548
3.89200	548
3.89567	547
3.89933	544
3.90300	541
3.90667	539
3.91033	542
3.91400	543
3.91767	542
3.92133	539
3.92500	535
3.92867	532
3.93233	531
3.93600	531
3.93967	532
3.94333	533
3.94700	534
3.95067	532
3.95433	529
3.95800	528
3.96167	528
3.96533	527
3.96900	525
3.97267	524
3.97633	523
3.98000	521
3.98367	518
3.98733	517
3.99100	516
3.99467	513
3.99833	510

[Status Trace (Column Oven Temperature)]
Interval(msec)	1000
# of Points	240
Start Time(min)	0.001
End Time(min)	3.985
Intensity Units	
Intensity Multiplier	1
R.Time (min)	Intensity
0.00137	35.09
0.01803	35.08
0.03470	35.08
0.05137	35.07
0.06803	35.05
0.08470	35.04
0.10137	35.03
0.11803	35.03
0.13470	35.03
0.15137	35.03
0.16803	35.04
0.18470	35.04
0.20137	35.05
0.21803	35.04
0.23470	35.04
0.25137	35.04
0.26803	35.05
0.28470	35.04
0.30137	35.04
0.31803	35.05
0.33470	35.04
0.35137	35.04
0.36803	35.03
0.38470	35.02
0.40137	35.01
0.41803	34.99
0.43470	35.00
0.45137	34.99
0.46803	35.00
0.48470	35.01
0.50137	35.01
0.51803	35.01
0.53470	35.00
0.55137	34.98
0.56803	34.99
0.58470	34.99
0.60137	34.99
0.61803	34.99
0.63470	34.99
0.65137	35.01
0.66803	35.01
0.68470	35.01
0.70137	35.01
0.71803	35.02
0.73470	35.00
0.75137	34.99
0.76803	34.99
0.78470	34.99
0.80137	34.99
0.81803	34.99
0.83470	34.98
0.85137	34.97
0.86803	34.97
0.88470	34.96
0.90137	34.98
0.91803	34.98
0.93470	35.00
0.95137	35.00
0.96803	35.00
0.98470	35.00
1.00137	35.00
1.01803	34.99
1.03470	34.99
1.05137	34.99
1.06803	34.98
1.08470	34.98
1.10137	34.99
1.11803	34.99
1.13470	35.00
1.15137	35.00
1.16803	35.01
1.18470	35.01
1.20137	35.02
1.21803	35.03
1.23470	35.02
1.25137	35.00
1.26803	35.00
1.28470	35.01
1.30137	35.00
1.31803	34.99
1.33470	34.98
1.35137	34.98
1.36803	34.98
1.38470	34.99
1.40137	34.99
1.41803	35.00
1.43470	34.99
1.45137	35.00
1.46803	35.00
1.48470	35.00
1.50137	35.00
1.51803	35.00
1.53470	35.00
1.55137	35.00
1.56803	35.00
1.58470	35.01
1.60137	35.05
1.61803	35.13
1.63470	35.30
1.65137	35.52
1.66803	35.82
1.68470	36.18
1.70137	36.54
1.71803	36.89
1.73470	37.22
1.75137	37.53
1.76803	37.88
1.78470	38.22
1.80137	38.53
1.81803	38.87
1.83470	39.21
1.85137	39.54
1.86803	39.86
1.88470	40.19
1.90137	40.54
1.91803	40.85
1.93470	41.18
1.95137	41.50
1.96803	41.81
1.98470	42.16
2.00137	42.48
2.01803	42.81
2.03470	43.13
2.05137	43.45
2.06803	43.78
2.08470	44.09
2.10137	44.42
2.11803	44.76
2.13470	45.09
2.15137	45.42
2.16803	45.74
2.18470	46.06
2.20137	46.39
2.21803	46.72
2.23470	47.04
2.25137	47.39
2.26803	47.72
2.28470	48.03
2.30137	48.36
2.31803	48.71
2.33470	49.01
2.35137	49.33
2.36803	49.62
2.38470	49.76
2.40137	49.77
2.41803	49.78
2.43470	49.78
2.45137	49.78
2.46803	49.79
2.48470	49.80
2.50137	49.82
2.51803	49.81
2.53470	49.80
2.55137	49.82
2.56803	49.82
2.58470	49.82
2.60137	49.82
2.61803	49.81
2.63470	49.82
2.65137	49.84
2.66803	49.83
2.68470	49.85
2.70137	49.86
2.71803	49.86
2.73470	49.84
2.75137	49.86
2.76803	49.86
2.78470	49.85
2.80137	49.87
2.81803	49.86
2.83470	49.88
2.85137	49.88
2.86803	49.89
2.88470	49.91
2.90137	49.93
2.91803	49.94
2.93470	49.95
2.95137	49.96
2.96803	49.96
2.98470	49.97
3.00137	49.99
3.01803	49.99
3.03470	50.00
3.05137	50.01
3.06803	50.02
3.08470	50.03
3.10137	50.04
3.11803	50.05
3.13470	50.05
3.15137	50.05
3.16803	50.06
3.18470	50.06
3.20137	50.06
3.21803	50.08
3.23470	50.08
3.25137	50.10
3.26803	50.11
3.28470	50.12
3.30137	50.11
3.31803	50.09
3.33470	50.07
3.35137	50.06
3.36803	50.05
3.38470	50.03
3.40137	50.02
3.41803	50.01
3.43470	50.00
3.45137	50.01
3.46803	50.01
3.48470	50.01
3.50137	50.01
3.51803	50.01
3.53470	50.02
3.55137	50.01
3.56803	50.01
3.58470	50.00
3.60137	50.00
3.61803	50.00
3.63470	50.00
3.65137	50.00
3.66803	50.00
3.68470	50.00
3.70137	50.03
3.71803	50.03
3.73470	50.04
3.75137	50.04
3.76803	50.05
3.78470	50.05
3.80137	50.06
3.81803	50.06
3.83470	50.06
3.85137	50.07
3.86803	50.08
3.88470	50.08
3.90137	50.08
3.91803	50.08
3.93470	50.08
3.95137	50.07
3.96803	50.06
3.98470	50.06

[Status Trace (Injection Unit Temperature)]
Interval(msec)	1000
# of Points	240
Start Time(min)	0.001
End Time(min)	3.985
Intensity Units	
Intensity Multiplier	1
R.Time (min)	Intensity
0.00137	99.98
0.01803	99.98
0.03470	99.98
0.05137	99.98
0.06803	99.98
0.08470	99.98
0.10137	99.98
0.11803	99.98
0.13470	99.98
0.15137	99.98
0.16803	99.98
0.18470	99.98
0.20137	99.98
0.21803	99.98
0.23470	99.98
0.25137	99.98
0.26803	99.98
0.28470	99.98
0.30137	99.98
0.31803	99.98
0.33470	99.99
0.35137	99.98
0.36803	99.98
0.38470	99.98
0.40137	99.99
0.41803	99.99
0.43470	99.98
0.45137	99.98
0.46803	99.99
0.48470	99.99
0.50137	99.99
0.51803	99.99
0.53470	99.98
0.55137	99.99
0.56803	99.99
0.58470	99.99
0.60137	99.98
0.61803	99.99
0.63470	99.99
0.65137	99.98
0.66803	99.98
0.68470	99.98
0.70137	99.99
0.71803	99.99
0.73470	99.99
0.75137	99.98
0.76803	99.99
0.78470	99.99
0.80137	99.98
0.81803	99.98
0.83470	99.98
0.85137	99.98
0.86803	99.98
0.88470	99.98
0.90137	99.98
0.91803	99.98
0.93470	99.98
0.95137	99.98
0.96803	99.98
0.98470	99.98
1.00137	99.98
1.01803	99.98
1.03470	99.98
1.05137	99.98
1.06803	99.98
1.08470	99.98
1.10137	99.98
1.11803	99.98
1.13470	99.98
1.15137	99.98
1.16803	99.98
1.18470	99.98
1.20137	99.98
1.21803	99.98
1.23470	99.98
1.25137	99.98
1.26803	99.98
1.28470	99.98
1.30137	99.98
1.31803	99.98
1.33470	99.98
1.35137	99.98
1.36803	99.98
1.38470	99.98
1.40137	99.98
1.41803	99.98
1.43470	99.98
1.45137	99.98
1.46803	99.98
1.48470	99.97
1.50137	99.98
1.51803	99.98
1.53470	99.98
1.55137	99.98
1.56803	99.98
1.58470	99.98
1.60137	99.98
1.61803	99.98
1.63470	99.98
1.65137	99.98
1.66803	99.98
1.68470	99.98
1.70137	99.97
1.71803	99.98
1.73470	99.98
1.75137	99.99
1.76803	99.99
1.78470	99.98
1.80137	99.98
1.81803	99.98
1.83470	99.98
1.85137	99.98
1.86803	99.98
1.88470	99.98
1.90137	99.98
1.91803	99.98
1.93470	99.98
1.95137	99.98
1.96803	99.97
1.98470	99.98
2.00137	99.98
2.01803	99.98
2.03470	99.97
2.05137	99.97
2.06803	99.97
2.08470	99.97
2.10137	99.97
2.11803	99.97
2.13470	99.97
2.15137	99.97
2.16803	99.97
2.18470	99.97
2.20137	99.97
2.21803	99.96
2.23470	99.96
2.25137	99.97
2.26803	99.96
2.28470	99.97
2.30137	99.97
2.31803	99.97
2.33470	99.96
2.35137	99.96
2.36803	99.96
2.38470	99.96
2.40137	99.96
2.41803	99.97
2.43470	99.96
2.45137	99.97
2.46803	99.97
2.48470	99.97
2.50137	99.96
2.51803	99.97
2.53470	99.97
2.55137	99.97
2.56803	99.97
2.58470	99.97
2.60137	99.98
2.61803	99.97
2.63470	99.98
2.65137	99.98
2.66803	99.98
2.68470	99.98
2.70137	99.98
2.71803	99.98
2.73470	99.99
2.75137	99.99
2.76803	99.99
2.78470	99.99
2.80137	99.99
2.81803	99.99
2.83470	100.00
2.85137	99.99
2.86803	100.00
2.88470	100.00
2.90137	100.00
2.91803	100.00
2.93470	100.01
2.95137	100.01
2.96803	100.00
2.98470	100.01
3.00137	100.00
3.01803	100.01
3.03470	100.01
3.05137	100.01
3.06803	100.01
3.08470	100.01
3.10137	100.01
3.11803	100.01
3.13470	100.01
3.15137	100.02
3.16803	100.02
3.18470	100.02
3.20137	100.02
3.21803	100.02
3.23470	100.02
3.25137	100.02
3.26803	100.02
3.28470	100.03
3.30137	100.03
3.31803	100.03
3.33470	100.03
3.35137	100.03
3.36803	100.03
3.38470	100.03
3.40137	100.03
3.41803	100.03
3.43470	100.04
3.45137	100.03
3.46803	100.04
3.48470	100.04
3.50137	100.03
3.51803	100.03
3.53470	100.04
3.55137	100.04
3.56803	100.04
3.58470	100.04
3.60137	100.04
3.61803	100.04
3.63470	100.04
3.65137	100.04
3.66803	100.04
3.68470	100.04
3.70137	100.05
3.71803	100.05
3.73470	100.04
3.75137	100.04
3.76803	100.04
3.78470	100.04
3.80137	100.05
3.81803	100.04
3.83470	100.05
3.85137	100.05
3.86803	100.05
3.88470	100.05
3.90137	100.05
3.91803	100.05
3.93470	100.05
3.95137	100.05
3.96803	100.05
3.98470	100.05

[Status Trace (Carrier Gas Pressure)]
Interval(msec)	1000
# of Points	240
Start Time(min)	0.001
End Time(min)	3.985
Intensity Units	
Intensity Multiplier	1
R.Time (min)	Intensity
0.00137	58.00
0.01803	56.55
0.03470	56.17
0.05137	58.49
0.06803	59.89
0.08470	58.35
0.10137	57.97
0.11803	58.00
0.13470	58.01
0.15137	58.01
0.16803	58.00
0.18470	58.00
0.20137	58.00
0.21803	58.00
0.23470	58.00
0.25137	58.00
0.26803	58.00
0.28470	58.00
0.30137	58.00
0.31803	58.00
0.33470	58.00
0.35137	58.00
0.36803	58.00
0.38470	58.00
0.40137	58.00
0.41803	58.00
0.43470	58.00
0.45137	58.00
0.46803	58.00
0.48470	58.00
0.50137	58.00
0.51803	58.00
0.53470	58.00
0.55137	58.00
0.56803	58.00
0.58470	58.00
0.60137	58.00
0.61803	58.00
0.63470	58.00
0.65137	58.00
0.66803	58.00
0.68470	58.00
0.70137	58.00
0.71803	58.00
0.73470	58.00
0.75137	58.00
0.76803	58.00
0.78470	58.00
0.80137	58.00
0.81803	58.00
0.83470	58.00
0.85137	58.00
0.86803	58.00
0.88470	58.00
0.90137	58.00
0.91803	58.00
0.93470	58.00
0.95137	58.00
0.96803	58.00
0.98470	58.00
1.00137	58.00
1.01803	58.00
1.03470	58.00
1.05137	58.00
1.06803	58.00
1.08470	58.00
1.10137	58.00
1.11803	58.00
1.13470	58.00
1.15137	58.00
1.16803	58.00
1.18470	58.00
1.20137	58.00
1.21803	58.00
1.23470	58.00
1.25137	58.00
1.26803	58.00
1.28470	58.00
1.30137	58.00
1.31803	58.00
1.33470	58.00
1.35137	58.00
1.36803	58.00
1.38470	58.00
1.40137	58.00
1.41803	58.00
1.43470	58.00
1.45137	58.00
1.46803	58.00
1.48470	58.00
1.50137	58.00
1.51803	58.00
1.53470	58.00
1.55137	58.00
1.56803	58.00
1.58470	58.00
1.60137	58.00
1.61803	58.00
1.63470	58.01
1.65137	58.00
1.66803	58.01
1.68470	58.01
1.70137	58.00
1.71803	58.00
1.73470	58.00
1.75137	58.00
1.76803	58.00
1.78470	58.00
1.80137	58.00
1.81803	58.00
1.83470	58.00
1.85137	58.00
1.86803	58.00
1.88470	58.00
1.90137	58.00
1.91803	58.00
1.93470	58.00
1.95137	58.00
1.96803	58.00
1.98470	58.00
2.00137	58.00
2.01803	58.00
2.03470	58.00
2.05137	58.00
2.06803	58.00
2.08470	58.00
2.10137	58.00
2.11803	58.00
2.13470	58.00
2.15137	58.00
2.16803	58.00
2.18470	58.00
2.20137	58.00
2.21803	58.00
2.23470	58.00
2.25137	58.00
2.26803	58.00
2.28470	58.00
2.30137	58.00
2.31803	58.00
2.33470	58.00
2.35137	58.00
2.36803	58.00
2.38470	57.99
2.40137	57.99
2.41803	58.00
2.43470	58.00
2.45137	58.00
2.46803	58.00
2.48470	58.00
2.50137	58.00
2.51803	57.98
2.53470	57.99
2.55137	58.00
2.56803	58.00
2.58470	58.00
2.60137	58.00
2.61803	58.00
2.63470	58.00
2.65137	58.00
2.66803	58.00
2.68470	58.00
2.70137	58.00
2.71803	58.00
2.73470	58.00
2.75137	58.00
2.76803	58.00
2.78470	58.00
2.80137	58.00
2.81803	58.00
2.83470	58.00
2.85137	58.00
2.86803	58.00
2.88470	58.00
2.90137	58.00
2.91803	58.00
2.93470	58.00
2.95137	58.00
2.96803	58.00
2.98470	58.00
3.00137	58.00
3.01803	58.00
3.03470	58.00
3.05137	58.00
3.06803	58.00
3.08470	58.00
3.10137	58.00
3.11803	58.00
3.13470	58.00
3.15137	58.00
3.16803	58.00
3.18470	58.00
3.20137	58.00
3.21803	58.00
3.23470	58.00
3.25137	58.00
3.26803	58.00
3.28470	58.00
3.30137	58.00
3.31803	58.00
3.33470	58.00
3.35137	58.00
3.36803	58.00
3.38470	58.00
3.40137	58.00
3.41803	58.00
3.43470	58.00
3.45137	58.00
3.46803	58.00
3.48470	58.00
3.50137	58.00
3.51803	58.00
3.53470	58.00
3.55137	58.00
3.56803	58.00
3.58470	58.00
3.60137	58.00
3.61803	58.00
3.63470	58.00
3.65137	58.00
3.66803	58.00
3.68470	58.00
3.70137	58.00
3.71803	58.00
3.73470	58.00
3.75137	58.00
3.76803	58.00
3.78470	58.00
3.80137	58.00
3.81803	58.00
3.83470	58.00
3.85137	58.00
3.86803	58.00
3.88470	58.00
3.90137	58.00
3.91803	58.00
3.93470	58.00
3.95137	58.00
3.96803	58.00
3.98470	58.00

[Status Trace (Carrier Gas Flow)]
Interval(msec)	1000
# of Points	240
Start Time(min)	0.001
End Time(min)	3.985
Intensity Units	
Intensity Multiplier	1
R.Time (min)	Intensity
0.00137	34.52
0.01803	34.01
0.03470	34.54
0.05137	34.55
0.06803	34.49
0.08470	34.51
0.10137	34.52
0.11803	34.52
0.13470	34.52
0.15137	34.52
0.16803	34.52
0.18470	34.52
0.20137	34.52
0.21803	34.52
0.23470	34.52
0.25137	34.52
0.26803	34.52
0.28470	34.52
0.30137	34.51
0.31803	34.52
0.33470	34.52
0.35137	34.52
0.36803	34.52
0.38470	34.52
0.40137	34.52
0.41803	34.51
0.43470	34.52
0.45137	34.51
0.46803	34.52
0.48470	34.52
0.50137	34.52
0.51803	34.52
0.53470	34.52
0.55137	34.51
0.56803	34.52
0.58470	34.52
0.60137	34.52
0.61803	34.51
0.63470	34.52
0.65137	34.52
0.66803	34.52
0.68470	34.52
0.70137	34.51
0.71803	34.52
0.73470	34.52
0.75137	34.51
0.76803	34.52
0.78470	34.52
0.80137	34.52
0.81803	34.52
0.83470	34.52
0.85137	34.52
0.86803	34.52
0.88470	34.52
0.90137	34.51
0.91803	34.52
0.93470	34.52
0.95137	34.52
0.96803	34.52
0.98470	34.52
1.00137	34.52
1.01803	34.52
1.03470	34.52
1.05137	34.52
1.06803	34.52
1.08470	34.52
1.10137	34.53
1.11803	34.52
1.13470	34.53
1.15137	34.52
1.16803	34.51
1.18470	34.52
1.20137	34.52
1.21803	34.51
1.23470	34.52
1.25137	34.52
1.26803	34.51
1.28470	34.52
1.30137	34.52
1.31803	34.51
1.33470	34.52
1.35137	34.52
1.36803	34.52
1.38470	34.52
1.40137	34.52
1.41803	34.52
1.43470	34.52
1.45137	34.51
1.46803	34.52
1.48470	34.52
1.50137	34.52
1.51803	34.52
1.53470	34.52
1.55137	34.52
1.56803	34.52
1.58470	34.52
1.60137	34.52
1.61803	34.52
1.63470	34.52
1.65137	34.52
1.66803	34.51
1.68470	34.51
1.70137	34.52
1.71803	34.51
1.73470	34.51
1.75137	34.52
1.76803	34.52
1.78470	34.51
1.80137	34.52
1.81803	34.52
1.83470	34.52
1.85137	34.52
1.86803	34.52
1.88470	34.52
1.90137	34.52
1.91803	34.52
1.93470	34.52
1.95137	34.51
1.96803	34.52
1.98470	34.52
2.00137	34.52
2.01803	34.52
2.03470	34.51
2.05137	34.52
2.06803	34.52
2.08470	34.52
2.10137	34.51
2.11803	34.52
2.13470	34.52
2.15137	34.52
2.16803	34.52
2.18470	34.52
2.20137	34.52
2.21803	34.52
2.23470	34.52
2.25137	34.52
2.26803	34.52
2.28470	34.52
2.30137	34.52
2.31803	34.51
2.33470	34.52
2.35137	34.52
2.36803	34.52
2.38470	34.52
2.40137	34.52
2.41803	34.52
2.43470	34.52
2.45137	34.51
2.46803	34.51
2.48470	34.52
2.50137	34.52
2.51803	34.52
2.53470	34.53
2.55137	34.51
2.56803	34.51
2.58470	34.52
2.60137	34.52
2.61803	34.51
2.63470	34.52
2.65137	34.51
2.66803	34.52
2.68470	34.52
2.70137	34.52
2.71803	34.52
2.73470	34.52
2.75137	34.52
2.76803	34.52
2.78470	34.52
2.80137	34.52
2.81803	34.52
2.83470	34.52
2.85137	34.52
2.86803	34.52
2.88470	34.52
2.90137	34.52
2.91803	34.52
2.93470	34.52
2.95137	34.52
2.96803	34.52
2.98470	34.52
3.00137	34.51
3.01803	34.52
3.03470	34.52
3.05137	34.52
3.06803	34.52
3.08470	34.52
3.10137	34.52
3.11803	34.52
3.13470	34.52
3.15137	34.52
3.16803	34.52
3.18470	34.52
3.20137	34.52
3.21803	34.52
3.23470	34.52
3.25137	34.52
3.26803	34.52
3.28470	34.51
3.30137	34.52
3.31803	34.52
3.33470	34.52
3.35137	34.52
3.36803	34.52
3.38470	34.52
3.40137	34.52
3.41803	34.52
3.43470	34.52
3.45137	34.52
3.46803	34.52
3.48470	34.52
3.50137	34.52
3.51803	34.53
3.53470	34.51
3.55137	34.51
3.56803	34.52
3.58470	34.52
3.60137	34.52
3.61803	34.52
3.63470	34.52
3.65137	34.52
3.66803	34.52
3.68470	34.52
3.70137	34.52
3.71803	34.51
3.73470	34.52
3.75137	34.51
3.76803	34.52
3.78470	34.52
3.80137	34.51
3.81803	34.51
3.83470	34.52
3.85137	34.52
3.86803	34.52
3.88470	34.52
3.90137	34.52
3.91803	34.52
3.93470	34.52
3.95137	34.52
3.96803	34.52
3.98470	34.52

[Status Trace (Column Flow)]
Interval(msec)	1000
# of Points	240
Start Time(min)	0.001
End Time(min)	3.985
Intensity Units	
Intensity Multiplier	1
R.Time (min)	Intensity
0.00137	5.53
0.01803	5.37
0.03470	5.32
0.05137	5.59
0.06803	5.76
0.08470	5.58
0.10137	5.53
0.11803	5.54
0.13470	5.54
0.15137	5.54
0.16803	5.54
0.18470	5.54
0.20137	5.54
0.21803	5.54
0.23470	5.54
0.25137	5.54
0.26803	5.54
0.28470	5.54
0.30137	5.54
0.31803	5.54
0.33470	5.54
0.35137	5.54
0.36803	5.54
0.38470	5.54
0.40137	5.54
0.41803	5.54
0.43470	5.54
0.45137	5.54
0.46803	5.54
0.48470	5.54
0.50137	5.54
0.51803	5.54
0.53470	5.54
0.55137	5.54
0.56803	5.54
0.58470	5.54
0.60137	5.54
0.61803	5.54
0.63470	5.54
0.65137	5.54
0.66803	5.54
0.68470	5.54
0.70137	5.54
0.71803	5.54
0.73470	5.54
0.75137	5.54
0.76803	5.54
0.78470	5.54
0.80137	5.54
0.81803	5.54
0.83470	5.54
0.85137	5.54
0.86803	5.54
0.88470	5.54
0.90137	5.54
0.91803	5.54
0.93470	5.54
0.95137	5.54
0.96803	5.54
0.98470	5.54
1.00137	5.54
1.01803	5.54
1.03470	5.54
1.05137	5.54
1.06803	5.54
1.08470	5.54
1.10137	5.54
1.11803	5.54
1.13470	5.54
1.15137	5.54
1.16803	5.54
1.18470	5.54
1.20137	5.54
1.21803	5.54
1.23470	5.54
1.25137	5.54
1.26803	5.54
1.28470	5.54
1.30137	5.54
1.31803	5.54
1.33470	5.54
1.35137	5.54
1.36803	5.54
1.38470	5.54
1.40137	5.54
1.41803	5.54
1.43470	5.54
1.45137	5.54
1.46803	5.54
1.48470	5.54
1.50137	5.54
1.51803	5.54
1.53470	5.54
1.55137	5.54
1.56803	5.54
1.58470	5.54
1.60137	5.54
1.61803	5.53
1.63470	5.53
1.65137	5.52
1.66803	5.51
1.68470	5.50
1.70137	5.49
1.71803	5.48
1.73470	5.47
1.75137	5.46
1.76803	5.45
1.78470	5.44
1.80137	5.43
1.81803	5.42
1.83470	5.41
1.85137	5.40
1.86803	5.39
1.88470	5.38
1.90137	5.37
1.91803	5.36
1.93470	5.35
1.95137	5.34
1.96803	5.33
1.98470	5.32
2.00137	5.31
2.01803	5.30
2.03470	5.29
2.05137	5.28
2.06803	5.27
2.08470	5.26
2.10137	5.25
2.11803	5.24
2.13470	5.23
2.15137	5.22
2.16803	5.21
2.18470	5.20
2.20137	5.19
2.21803	5.19
2.23470	5.18
2.25137	5.17
2.26803	5.16
2.28470	5.15
2.30137	5.14
2.31803	5.13
2.33470	5.12
2.35137	5.11
2.36803	5.10
2.38470	5.10
2.40137	5.10
2.41803	5.10
2.43470	5.10
2.45137	5.10
2.46803	5.10
2.48470	5.10
2.50137	5.10
2.51803	5.10
2.53470	5.10
2.55137	5.10
2.56803	5.10
2.58470	5.10
2.60137	5.10
2.61803	5.10
2.63470	5.10
2.65137	5.10
2.66803	5.10
2.68470	5.10
2.70137	5.10
2.71803	5.10
2.73470	5.10
2.75137	5.10
2.76803	5.10
2.78470	5.10
2.80137	5.10
2.81803	5.10
2.83470	5.10
2.85137	5.10
2.86803	5.10
2.88470	5.10
2.90137	5.09
2.91803	5.09
2.93470	5.09
2.95137	5.09
2.96803	5.09
2.98470	5.09
3.00137	5.09
3.01803	5.09
3.03470	5.09
3.05137	5.09
3.06803	5.09
3.08470	5.09
3.10137	5.09
3.11803	5.09
3.13470	5.09
3.15137	5.09
3.16803	5.09
3.18470	5.09
3.20137	5.09
3.21803	5.09
3.23470	5.09
3.25137	5.09
3.26803	5.09
3.28470	5.09
3.30137	5.09
3.31803	5.09
3.33470	5.09
3.35137	5.09
3.36803	5.09
3.38470	5.09
3.40137	5.09
3.41803	5.09
3.43470	5.09
3.45137	5.09
3.46803	5.09
3.48470	5.09
3.50137	5.09
3.51803	5.09
3.53470	5.09
3.55137	5.09
3.56803	5.09
3.58470	5.09
3.60137	5.09
3.61803	5.09
3.63470	5.09
3.65137	5.09
3.66803	5.09
3.68470	5.09
3.70137	5.09
3.71803	5.09
3.73470	5.09
3.75137	5.09
3.76803	5.09
3.78470	5.09
3.80137	5.09
3.81803	5.09
3.83470	5.09
3.85137	5.09
3.86803	5.09
3.88470	5.09
3.90137	5.09
3.91803	5.09
3.93470	5.09
3.95137	5.09
3.96803	5.09
3.98470	5.09

[Status Trace (Linear Velocity)]
Interval(msec)	1000
# of Points	240
Start Time(min)	0.001
End Time(min)	3.985
Intensity Units	
Intensity Multiplier	1
R.Time (min)	Intensity
0.00137	39.01
0.01803	38.06
0.03470	37.81
0.05137	39.34
0.06803	40.25
0.08470	39.24
0.10137	39.00
0.11803	39.02
0.13470	39.02
0.15137	39.02
0.16803	39.02
0.18470	39.02
0.20137	39.02
0.21803	39.02
0.23470	39.02
0.25137	39.02
0.26803	39.02
0.28470	39.02
0.30137	39.02
0.31803	39.02
0.33470	39.02
0.35137	39.02
0.36803	39.02
0.38470	39.02
0.40137	39.02
0.41803	39.02
0.43470	39.02
0.45137	39.02
0.46803	39.02
0.48470	39.02
0.50137	39.02
0.51803	39.02
0.53470	39.02
0.55137	39.02
0.56803	39.02
0.58470	39.02
0.60137	39.02
0.61803	39.02
0.63470	39.02
0.65137	39.02
0.66803	39.02
0.68470	39.02
0.70137	39.02
0.71803	39.02
0.73470	39.02
0.75137	39.02
0.76803	39.02
0.78470	39.02
0.80137	39.02
0.81803	39.02
0.83470	39.02
0.85137	39.02
0.86803	39.02
0.88470	39.02
0.90137	39.02
0.91803	39.02
0.93470	39.02
0.95137	39.02
0.96803	39.02
0.98470	39.02
1.00137	39.02
1.01803	39.02
1.03470	39.02
1.05137	39.02
1.06803	39.02
1.08470	39.02
1.10137	39.02
1.11803	39.02
1.13470	39.02
1.15137	39.02
1.16803	39.02
1.18470	39.02
1.20137	39.02
1.21803	39.02
1.23470	39.02
1.25137	39.02
1.26803	39.02
1.28470	39.02
1.30137	39.02
1.31803	39.02
1.33470	39.02
1.35137	39.02
1.36803	39.02
1.38470	39.02
1.40137	39.02
1.41803	39.02
1.43470	39.02
1.45137	39.02
1.46803	39.02
1.48470	39.02
1.50137	39.02
1.51803	39.02
1.53470	39.02
1.55137	39.02
1.56803	39.02
1.58470	39.02
1.60137	39.02
1.61803	39.01
1.63470	38.99
1.65137	38.97
1.66803	38.95
1.68470	38.91
1.70137	38.87
1.71803	38.84
1.73470	38.81
1.75137	38.78
1.76803	38.75
1.78470	38.71
1.80137	38.68
1.81803	38.65
1.83470	38.62
1.85137	38.59
1.86803	38.56
1.88470	38.53
1.90137	38.50
1.91803	38.47
1.93470	38.44
1.95137	38.41
1.96803	38.38
1.98470	38.35
2.00137	38.31
2.01803	38.28
2.03470	38.26
2.05137	38.23
2.06803	38.20
2.08470	38.17
2.10137	38.14
2.11803	38.11
2.13470	38.08
2.15137	38.05
2.16803	38.02
2.18470	37.99
2.20137	37.96
2.21803	37.93
2.23470	37.90
2.25137	37.87
2.26803	37.84
2.28470	37.81
2.30137	37.78
2.31803	37.75
2.33470	37.72
2.35137	37.70
2.36803	37.67
2.38470	37.65
2.40137	37.65
2.41803	37.65
2.43470	37.66
2.45137	37.65
2.46803	37.65
2.48470	37.65
2.50137	37.65
2.51803	37.64
2.53470	37.65
2.55137	37.65
2.56803	37.65
2.58470	37.65
2.60137	37.65
2.61803	37.65
2.63470	37.65
2.65137	37.65
2.66803	37.65
2.68470	37.65
2.70137	37.65
2.71803	37.65
2.73470	37.65
2.75137	37.65
2.76803	37.65
2.78470	37.65
2.80137	37.65
2.81803	37.65
2.83470	37.65
2.85137	37.65
2.86803	37.65
2.88470	37.64
2.90137	37.64
2.91803	37.64
2.93470	37.64
2.95137	37.64
2.96803	37.64
2.98470	37.64
3.00137	37.64
3.01803	37.64
3.03470	37.64
3.05137	37.64
3.06803	37.63
3.08470	37.63
3.10137	37.63
3.11803	37.63
3.13470	37.63
3.15137	37.63
3.16803	37.63
3.18470	37.63
3.20137	37.63
3.21803	37.63
3.23470	37.63
3.25137	37.63
3.26803	37.63
3.28470	37.63
3.30137	37.63
3.31803	37.63
3.33470	37.63
3.35137	37.63
3.36803	37.63
3.38470	37.63
3.40137	37.63
3.41803	37.64
3.43470	37.64
3.45137	37.64
3.46803	37.64
3.48470	37.63
3.50137	37.64
3.51803	37.64
3.53470	37.63
3.55137	37.64
3.56803	37.64
3.58470	37.64
3.60137	37.64
3.61803	37.64
3.63470	37.64
3.65137	37.64
3.66803	37.64
3.68470	37.64
3.70137	37.63
3.71803	37.63
3.73470	37.63
3.75137	37.63
3.76803	37.63
3.78470	37.63
3.80137	37.63
3.81803	37.63
3.83470	37.63
3.85137	37.63
3.86803	37.63
3.88470	37.63
3.90137	37.63
3.91803	37.63
3.93470	37.63
3.95137	37.63
3.96803	37.63
3.98470	37.63

