[Header]
Application Name	LabSolutions
Version	5.110
Data File Name	C:\Users\User\Desktop\GC Analyses\Jack\Nachusa Grasslands Sampling\T3 Timepoint July 12th\T3_07122022_087.gcd
Output Date	3/14/2023
Output Time	3:43:36 PM

[File Information]
Type	Data File
Generated	3/14/2023 12:14:39 AM
Generated by	System Administrator
Modified	3/14/2023 12:21:18 AM
Modified by	System Administrator

[Sample Information]
Operator Name	System Administrator
Acquired	3/14/2023 12:17:16 AM
Sample Type	0:Unknown
Level	0
Sample Name	087
Sample ID	087
ISTD Amount1	1
ISTD Amount2	1
ISTD Amount3	1
ISTD Amount4	1
ISTD Amount5	1
ISTD Amount6	1
ISTD Amount7	1
ISTD Amount8	1
ISTD Amount9	1
ISTD Amount10	1
ISTD Amount11	1
ISTD Amount12	1
ISTD Amount13	1
ISTD Amount14	1
ISTD Amount15	1
ISTD Amount16	1
ISTD Amount17	1
ISTD Amount18	1
ISTD Amount19	1
ISTD Amount20	1
ISTD Amount21	1
ISTD Amount22	1
ISTD Amount23	1
ISTD Amount24	1
ISTD Amount25	1
ISTD Amount26	1
ISTD Amount27	1
ISTD Amount28	1
ISTD Amount29	1
ISTD Amount30	1
ISTD Amount31	1
ISTD Amount32	1
Sample Amount	1
Dilution Factor	1
Vial#	86
Injection Volume	1
Injection Count	1
Bar Code	

[Original Files]
Data File	C:\Users\User\Desktop\GC Analyses\Jack\Nachusa Grasslands Sampling\T3 Timepoint July 12th\T3_07122022_087.gcd
Method File	C:\LabSolutions\Data\GHG_4min_2022\ghg3_togas_w_acet_4 min_new_int.gcm
Batch File	C:\LabSolutions\Data\AutoSamplerTesting\T3_07122022.gcb
Report Format File	c:\LabSolutions\System\DEFAULT.lsr

[File Description]


[Configuration]
Instrument Name	C0B7VH3-Instrument1
Instrument #	1
Line #	1
# of Detectors	3
Detector ID	DET#1	DET#2	DET#3
Detector Name	FID	PTCD	ECD
# of Channels	1	1	1

[Peak Table(Ch1)]
# of Peaks	3
Peak#	R.Time	I.Time	F.Time	Area	Height	A/H	Conc.	Mark	ID#	Name	k'	Plate #	Plate Ht.	Tailing	Resolution	Sep.Factor	Area Ratio	Height Ratio	Conc. %	Norm Conc.
1	1.476	1.443	1.534	29913	14797	2.022	211.186	   	1	CO	0.000	9727	15.421	1.282	0.000	0.000	0	0	20.797	20.797
2	1.571	1.542	1.604	3440	1884	1.826	66.522	   	2	CH4	0.065	13344	11.241	1.052	1.669	0.000	0	0	6.551	6.551
3	1.996	1.952	2.315	2939635	1408338	2.087	737.769	   	3	CO2	0.353	17421	8.610	1.345	7.404	5.462	0	0	72.652	72.652

[Peak Table(Ch2)]
# of Peaks	0

[Peak Table(Ch3)]
# of Peaks	6
Peak#	R.Time	I.Time	F.Time	Area	Height	A/H	Conc.	Mark	ID#	Name	k'	Plate #	Plate Ht.	Tailing	Resolution	Sep.Factor	Area Ratio	Height Ratio	Conc. %	Norm Conc.
1	2.462	2.348	2.510	2029	698	2.906	0.000	   			0.000	12000	12.500	0.000	0.000	0.000	0	0	0.000	0.000
2	2.532	2.510	2.579	869	313	2.781	0.000	 V 			0.028	7813	19.199	0.000	0.681	0.000	0	0	0.000	0.000
3	2.605	2.579	2.682	466	128	3.640	0.000	 V 			0.058	2718	55.187	0.000	0.466	2.053	0	0	0.000	0.000
4	2.880	2.704	3.107	20539	4892	4.199	0.525	S  	1	N2O	0.170	12710	11.802	1.631	1.821	2.923	0	0	100.000	100.000
5	3.096	3.082	3.104	47	60	0.779	0.000	T  	2	SF6	0.258	261930	0.573	0.746	3.423	1.518	0	0	0.000	0.000
6	3.324	3.111	3.995	23532	773	30.450	0.000	   	2	SF6	0.350	207	726.087	2.010	0.479	1.358	0	0	0.000	0.000

[Compound Results(Ch1)]
# of IDs	6
ID#	Name	R.Time	Area	Height	Conc.	Curve	3rd	2nd	1st	Constant	Area Ratio	Height Ratio	Conc. %	Norm Conc.
1	CO	1.476	29913	14797	211.186	Linear	0.000000e+00	0.000000e+00	1.416423e+002	0.000000e+00	0	0	20.797	20.797
2	CH4	1.571	3440	1884	66.522	Linear	0.000000e+00	0.000000e+00	5.171738e+001	0.000000e+00	0	0	6.551	6.551
3	CO2	1.996	2939635	1408338	737.769	Linear	0.000000e+00	0.000000e+00	3.984494e+003	0.000000e+00	0	0	72.652	72.652
4	Ethylene	0.000	0	0	0.000	Linear	0.000000e+00	0.000000e+00	0.000000e+00	0.000000e+00	0	0	0.000	0.000
5	Acetylene	0.000	0	0	0.000	Linear	0.000000e+00	0.000000e+00	0.000000e+00	0.000000e+00	0	0	0.000	0.000
6	Ethane	0.000	0	0	0.000	Linear	0.000000e+00	0.000000e+00	0.000000e+00	0.000000e+00	0	0	0.000	0.000

[Compound Results(Ch2)]
# of IDs	5
ID#	Name	R.Time	Area	Height	Conc.	Curve	3rd	2nd	1st	Constant	Area Ratio	Height Ratio	Conc. %	Norm Conc.
1	Hydrogen	0.000	0	0	0.000	Linear	0.000000e+00	0.000000e+00	0.000000e+00	0.000000e+00	0	0	0.000	0.000
2	Oxygen	0.000	0	0	0.000	Linear	0.000000e+00	0.000000e+00	0.000000e+00	0.000000e+00	0	0	0.000	0.000
3	Nitrogen	0.000	0	0	0.000	Linear	0.000000e+00	0.000000e+00	0.000000e+00	0.000000e+00	0	0	0.000	0.000
4	Methane	0.000	0	0	0.000	Linear	0.000000e+00	0.000000e+00	0.000000e+00	0.000000e+00	0	0	0.000	0.000
5	Carbon Monoxide	0.000	0	0	0.000	Linear	0.000000e+00	0.000000e+00	0.000000e+00	0.000000e+00	0	0	0.000	0.000

[Compound Results(Ch3)]
# of IDs	2
ID#	Name	R.Time	Area	Height	Conc.	Curve	3rd	2nd	1st	Constant	Area Ratio	Height Ratio	Conc. %	Norm Conc.
1	N2O	2.880	20539	4892	0.525	Linear	0.000000e+00	0.000000e+00	3.915173e+004	0.000000e+00	0	0	100.000	100.000
2	SF6	3.324	23578	833	0.000	Linear	0.000000e+00	0.000000e+00	0.000000e+00	0.000000e+00	0	0	0.000	0.000

[Group Results(Ch1)]
# of Groups	0

[Group Results(Ch2)]
# of Groups	0

[Group Results(Ch3)]
# of Groups	0

[Chromatogram (Ch1)]
Interval(msec)	220
# of Points	1091
Start Time(min)	0.002
End Time(min)	3.998
R.Time (min)	Intensity
0.00167	27
0.00533	32
0.00900	38
0.01267	39
0.01633	39
0.02000	41
0.02367	41
0.02733	38
0.03100	36
0.03467	31
0.03833	27
0.04200	23
0.04567	22
0.04933	29
0.05300	35
0.05667	39
0.06033	40
0.06400	35
0.06767	28
0.07133	21
0.07500	17
0.07867	14
0.08233	10
0.08600	7
0.08967	8
0.09333	10
0.09700	15
0.10067	29
0.10433	43
0.10800	51
0.11167	54
0.11533	54
0.11900	51
0.12267	44
0.12633	40
0.13000	34
0.13367	27
0.13733	19
0.14100	12
0.14467	6
0.14833	-1
0.15200	-3
0.15567	2
0.15933	12
0.16300	23
0.16667	28
0.17033	24
0.17400	14
0.17767	5
0.18133	6
0.18500	17
0.18867	29
0.19233	37
0.19600	40
0.19967	42
0.20333	42
0.20700	41
0.21067	44
0.21433	49
0.21800	57
0.22167	62
0.22533	61
0.22900	56
0.23267	44
0.23633	33
0.24000	25
0.24367	20
0.24733	19
0.25100	20
0.25467	22
0.25833	25
0.26200	31
0.26567	43
0.26933	59
0.27300	75
0.27667	92
0.28033	108
0.28400	114
0.28767	116
0.29133	121
0.29500	122
0.29867	118
0.30233	114
0.30600	109
0.30967	102
0.31333	91
0.31700	81
0.32067	74
0.32433	71
0.32800	71
0.33167	77
0.33533	85
0.33900	95
0.34267	104
0.34633	111
0.35000	109
0.35367	105
0.35733	101
0.36100	100
0.36467	97
0.36833	97
0.37200	101
0.37567	102
0.37933	101
0.38300	101
0.38667	98
0.39033	90
0.39400	82
0.39767	74
0.40133	67
0.40500	61
0.40867	57
0.41233	58
0.41600	67
0.41967	75
0.42333	81
0.42700	84
0.43067	83
0.43433	75
0.43800	63
0.44167	51
0.44533	46
0.44900	47
0.45267	45
0.45633	45
0.46000	47
0.46367	44
0.46733	36
0.47100	30
0.47467	24
0.47833	20
0.48200	16
0.48567	11
0.48933	9
0.49300	9
0.49667	12
0.50033	17
0.50400	19
0.50767	19
0.51133	16
0.51500	16
0.51867	16
0.52233	16
0.52600	12
0.52967	8
0.53333	3
0.53700	1
0.54067	5
0.54433	12
0.54800	20
0.55167	24
0.55533	30
0.55900	39
0.56267	45
0.56633	46
0.57000	39
0.57367	21
0.57733	-4
0.58100	-24
0.58467	-29
0.58833	-21
0.59200	-11
0.59567	-4
0.59933	-1
0.60300	-1
0.60667	0
0.61033	1
0.61400	-4
0.61767	-6
0.62133	-3
0.62500	5
0.62867	14
0.63233	21
0.63600	26
0.63967	27
0.64333	27
0.64700	27
0.65067	22
0.65433	18
0.65800	14
0.66167	15
0.66533	22
0.66900	26
0.67267	25
0.67633	25
0.68000	25
0.68367	22
0.68733	23
0.69100	28
0.69467	33
0.69833	36
0.70200	41
0.70567	43
0.70933	37
0.71300	25
0.71667	15
0.72033	9
0.72400	9
0.72767	10
0.73133	8
0.73500	2
0.73867	-2
0.74233	-2
0.74600	-5
0.74967	-7
0.75333	-9
0.75700	-9
0.76067	-5
0.76433	-1
0.76800	-4
0.77167	-6
0.77533	-5
0.77900	0
0.78267	8
0.78633	12
0.79000	13
0.79367	9
0.79733	5
0.80100	6
0.80467	14
0.80833	21
0.81200	25
0.81567	27
0.81933	28
0.82300	28
0.82667	24
0.83033	13
0.83400	2
0.83767	-5
0.84133	-6
0.84500	0
0.84867	8
0.85233	15
0.85600	13
0.85967	11
0.86333	10
0.86700	11
0.87067	17
0.87433	26
0.87800	30
0.88167	29
0.88533	29
0.88900	30
0.89267	34
0.89633	41
0.90000	49
0.90367	56
0.90733	65
0.91100	70
0.91467	68
0.91833	63
0.92200	57
0.92567	54
0.92933	47
0.93300	36
0.93667	25
0.94033	20
0.94400	21
0.94767	26
0.95133	30
0.95500	31
0.95867	29
0.96233	28
0.96600	22
0.96967	17
0.97333	17
0.97700	20
0.98067	25
0.98433	31
0.98800	35
0.99167	37
0.99533	42
0.99900	48
1.00267	52
1.00633	48
1.01000	42
1.01367	41
1.01733	46
1.02100	52
1.02467	56
1.02833	58
1.03200	55
1.03567	51
1.03933	43
1.04300	33
1.04667	26
1.05033	24
1.05400	27
1.05767	34
1.06133	40
1.06500	40
1.06867	31
1.07233	22
1.07600	16
1.07967	11
1.08333	9
1.08700	11
1.09067	16
1.09433	19
1.09800	18
1.10167	18
1.10533	24
1.10900	29
1.11267	30
1.11633	34
1.12000	38
1.12367	42
1.12733	44
1.13100	47
1.13467	50
1.13833	51
1.14200	51
1.14567	41
1.14933	28
1.15300	17
1.15667	9
1.16033	4
1.16400	3
1.16767	3
1.17133	1
1.17500	-3
1.17867	-10
1.18233	-13
1.18600	-10
1.18967	-3
1.19333	4
1.19700	11
1.20067	20
1.20433	27
1.20800	30
1.21167	30
1.21533	30
1.21900	26
1.22267	24
1.22633	26
1.23000	29
1.23367	33
1.23733	35
1.24100	34
1.24467	32
1.24833	31
1.25200	30
1.25567	26
1.25933	21
1.26300	21
1.26667	29
1.27033	30
1.27400	25
1.27767	13
1.28133	1
1.28500	0
1.28867	2
1.29233	-1
1.29600	-8
1.29967	-16
1.30333	-19
1.30700	-14
1.31067	-7
1.31433	4
1.31800	13
1.32167	16
1.32533	18
1.32900	22
1.33267	22
1.33633	19
1.34000	19
1.34367	21
1.34733	27
1.35100	32
1.35467	27
1.35833	15
1.36200	4
1.36567	-3
1.36933	-4
1.37300	-2
1.37667	1
1.38033	8
1.38400	17
1.38767	25
1.39133	25
1.39500	20
1.39867	10
1.40233	7
1.40600	6
1.40967	1
1.41333	-3
1.41700	-5
1.42067	-5
1.42433	-6
1.42800	-6
1.43167	-4
1.43533	1
1.43900	14
1.44267	58
1.44633	210
1.45000	667
1.45367	1845
1.45733	4047
1.46100	6930
1.46467	9824
1.46833	12237
1.47200	13949
1.47567	14824
1.47933	14731
1.48300	13627
1.48667	11719
1.49033	9414
1.49400	7131
1.49767	5157
1.50133	3598
1.50500	2440
1.50867	1614
1.51233	1039
1.51600	646
1.51967	379
1.52333	202
1.52700	87
1.53067	14
1.53433	-28
1.53800	-46
1.54167	-24
1.54533	88
1.54900	335
1.55267	694
1.55633	1080
1.56000	1421
1.56367	1684
1.56733	1854
1.57100	1897
1.57467	1787
1.57833	1543
1.58200	1224
1.58567	898
1.58933	614
1.59300	392
1.59667	235
1.60033	128
1.60400	54
1.60767	0
1.61133	-33
1.61500	-46
1.61867	-55
1.62233	-64
1.62600	-71
1.62967	-71
1.63333	-63
1.63700	-51
1.64067	-48
1.64433	-54
1.64800	-64
1.65167	-73
1.65533	-76
1.65900	-70
1.66267	-61
1.66633	-55
1.67000	-52
1.67367	-53
1.67733	-56
1.68100	-60
1.68467	-66
1.68833	-70
1.69200	-69
1.69567	-66
1.69933	-59
1.70300	-50
1.70667	-50
1.71033	-55
1.71400	-60
1.71767	-62
1.72133	-60
1.72500	-65
1.72867	-73
1.73233	-72
1.73600	-66
1.73967	-65
1.74333	-70
1.74700	-70
1.75067	-63
1.75433	-56
1.75800	-53
1.76167	-53
1.76533	-49
1.76900	-40
1.77267	-31
1.77633	-22
1.78000	-20
1.78367	-17
1.78733	-13
1.79100	-14
1.79467	-23
1.79833	-38
1.80200	-47
1.80567	-47
1.80933	-50
1.81300	-46
1.81667	-36
1.82033	-35
1.82400	-41
1.82767	-47
1.83133	-47
1.83500	-42
1.83867	-35
1.84233	-30
1.84600	-26
1.84967	-21
1.85333	-17
1.85700	-14
1.86067	-11
1.86433	-5
1.86800	-1
1.87167	-3
1.87533	-11
1.87900	-21
1.88267	-21
1.88633	-15
1.89000	-16
1.89367	-19
1.89733	-18
1.90100	-18
1.90467	-19
1.90833	-13
1.91200	-3
1.91567	4
1.91933	5
1.92300	0
1.92667	-2
1.93033	-2
1.93400	-0
1.93767	4
1.94133	13
1.94500	17
1.94867	16
1.95233	23
1.95600	133
1.95967	882
1.96333	4741
1.96700	19810
1.97067	64805
1.97433	167526
1.97800	347968
1.98167	596552
1.98533	872424
1.98900	1124679
1.99267	1311785
1.99633	1408411
2.00000	1404958
2.00367	1308184
2.00733	1141255
2.01100	937475
2.01467	730182
2.01833	544084
2.02200	391809
2.02567	275497
2.02933	190952
2.03300	131589
2.03667	90860
2.04033	63297
2.04400	44765
2.04767	32306
2.05133	23881
2.05500	18116
2.05867	14110
2.06233	11277
2.06600	9230
2.06967	7717
2.07333	6566
2.07700	5667
2.08067	4958
2.08433	4395
2.08800	3942
2.09167	3567
2.09533	3249
2.09900	2980
2.10267	2751
2.10633	2549
2.11000	2372
2.11367	2221
2.11733	2085
2.12100	1962
2.12467	1849
2.12833	1744
2.13200	1652
2.13567	1567
2.13933	1488
2.14300	1417
2.14667	1355
2.15033	1301
2.15400	1251
2.15767	1204
2.16133	1158
2.16500	1111
2.16867	1066
2.17233	1028
2.17600	993
2.17967	962
2.18333	939
2.18700	916
2.19067	890
2.19433	865
2.19800	841
2.20167	817
2.20533	794
2.20900	773
2.21267	754
2.21633	736
2.22000	722
2.22367	705
2.22733	685
2.23100	663
2.23467	644
2.23833	630
2.24200	621
2.24567	612
2.24933	606
2.25300	598
2.25667	585
2.26033	570
2.26400	555
2.26767	540
2.27133	528
2.27500	518
2.27867	514
2.28233	510
2.28600	503
2.28967	489
2.29333	474
2.29700	461
2.30067	453
2.30433	447
2.30800	441
2.31167	438
2.31533	437
2.31900	436
2.32267	438
2.32633	441
2.33000	443
2.33367	442
2.33733	441
2.34100	440
2.34467	433
2.34833	421
2.35200	410
2.35567	401
2.35933	394
2.36300	392
2.36667	389
2.37033	388
2.37400	386
2.37767	386
2.38133	388
2.38500	387
2.38867	388
2.39233	386
2.39600	381
2.39967	375
2.40333	374
2.40700	378
2.41067	385
2.41433	393
2.41800	396
2.42167	395
2.42533	390
2.42900	382
2.43267	370
2.43633	359
2.44000	350
2.44367	347
2.44733	342
2.45100	336
2.45467	334
2.45833	337
2.46200	341
2.46567	347
2.46933	355
2.47300	360
2.47667	362
2.48033	362
2.48400	358
2.48767	347
2.49133	339
2.49500	334
2.49867	326
2.50233	319
2.50600	315
2.50967	317
2.51333	321
2.51700	324
2.52067	329
2.52433	335
2.52800	338
2.53167	340
2.53533	341
2.53900	346
2.54267	351
2.54633	353
2.55000	351
2.55367	344
2.55733	335
2.56100	329
2.56467	328
2.56833	327
2.57200	328
2.57567	332
2.57933	333
2.58300	336
2.58667	341
2.59033	343
2.59400	344
2.59767	340
2.60133	336
2.60500	326
2.60867	314
2.61233	308
2.61600	306
2.61967	307
2.62333	309
2.62700	309
2.63067	310
2.63433	314
2.63800	314
2.64167	310
2.64533	306
2.64900	306
2.65267	310
2.65633	313
2.66000	316
2.66367	320
2.66733	324
2.67100	326
2.67467	325
2.67833	323
2.68200	323
2.68567	325
2.68933	328
2.69300	330
2.69667	328
2.70033	324
2.70400	324
2.70767	325
2.71133	321
2.71500	316
2.71867	311
2.72233	314
2.72600	322
2.72967	329
2.73333	331
2.73700	331
2.74067	329
2.74433	329
2.74800	334
2.75167	336
2.75533	337
2.75900	337
2.76267	330
2.76633	325
2.77000	324
2.77367	326
2.77733	329
2.78100	327
2.78467	322
2.78833	318
2.79200	317
2.79567	319
2.79933	324
2.80300	331
2.80667	340
2.81033	349
2.81400	350
2.81767	345
2.82133	340
2.82500	336
2.82867	329
2.83233	326
2.83600	330
2.83967	336
2.84333	340
2.84700	337
2.85067	333
2.85433	328
2.85800	324
2.86167	325
2.86533	329
2.86900	332
2.87267	336
2.87633	335
2.88000	336
2.88367	344
2.88733	353
2.89100	358
2.89467	357
2.89833	350
2.90200	342
2.90567	332
2.90933	324
2.91300	321
2.91667	321
2.92033	327
2.92400	338
2.92767	347
2.93133	347
2.93500	345
2.93867	342
2.94233	336
2.94600	332
2.94967	330
2.95333	329
2.95700	325
2.96067	323
2.96433	325
2.96800	330
2.97167	339
2.97533	349
2.97900	357
2.98267	360
2.98633	354
2.99000	344
2.99367	339
2.99733	340
3.00100	342
3.00467	347
3.00833	351
3.01200	351
3.01567	348
3.01933	346
3.02300	344
3.02667	347
3.03033	352
3.03400	351
3.03767	344
3.04133	337
3.04500	336
3.04867	338
3.05233	340
3.05600	339
3.05967	336
3.06333	338
3.06700	342
3.07067	346
3.07433	347
3.07800	349
3.08167	350
3.08533	344
3.08900	334
3.09267	323
3.09633	317
3.10000	315
3.10367	316
3.10733	323
3.11100	332
3.11467	339
3.11833	345
3.12200	349
3.12567	348
3.12933	344
3.13300	341
3.13667	342
3.14033	343
3.14400	342
3.14767	340
3.15133	338
3.15500	337
3.15867	338
3.16233	333
3.16600	325
3.16967	316
3.17333	309
3.17700	307
3.18067	308
3.18433	311
3.18800	314
3.19167	315
3.19533	318
3.19900	325
3.20267	334
3.20633	342
3.21000	348
3.21367	353
3.21733	354
3.22100	345
3.22467	336
3.22833	329
3.23200	324
3.23567	325
3.23933	327
3.24300	328
3.24667	332
3.25033	337
3.25400	337
3.25767	334
3.26133	330
3.26500	328
3.26867	328
3.27233	327
3.27600	329
3.27967	329
3.28333	326
3.28700	325
3.29067	326
3.29433	328
3.29800	327
3.30167	321
3.30533	308
3.30900	299
3.31267	295
3.31633	296
3.32000	304
3.32367	314
3.32733	317
3.33100	315
3.33467	314
3.33833	316
3.34200	320
3.34567	325
3.34933	329
3.35300	327
3.35667	322
3.36033	314
3.36400	309
3.36767	308
3.37133	306
3.37500	304
3.37867	303
3.38233	304
3.38600	313
3.38967	324
3.39333	329
3.39700	328
3.40067	324
3.40433	314
3.40800	303
3.41167	296
3.41533	293
3.41900	292
3.42267	296
3.42633	304
3.43000	308
3.43367	307
3.43733	303
3.44100	301
3.44467	298
3.44833	293
3.45200	290
3.45567	288
3.45933	288
3.46300	291
3.46667	288
3.47033	285
3.47400	282
3.47767	280
3.48133	277
3.48500	275
3.48867	274
3.49233	274
3.49600	274
3.49967	278
3.50333	286
3.50700	295
3.51067	298
3.51433	287
3.51800	275
3.52167	268
3.52533	266
3.52900	261
3.53267	261
3.53633	268
3.54000	276
3.54367	280
3.54733	281
3.55100	279
3.55467	279
3.55833	287
3.56200	296
3.56567	295
3.56933	286
3.57300	281
3.57667	275
3.58033	268
3.58400	261
3.58767	260
3.59133	265
3.59500	270
3.59867	272
3.60233	270
3.60600	269
3.60967	268
3.61333	268
3.61700	270
3.62067	269
3.62433	266
3.62800	267
3.63167	272
3.63533	275
3.63900	275
3.64267	270
3.64633	268
3.65000	267
3.65367	265
3.65733	265
3.66100	265
3.66467	266
3.66833	270
3.67200	275
3.67567	277
3.67933	277
3.68300	276
3.68667	270
3.69033	261
3.69400	256
3.69767	257
3.70133	260
3.70500	264
3.70867	265
3.71233	264
3.71600	263
3.71967	262
3.72333	262
3.72700	259
3.73067	254
3.73433	252
3.73800	255
3.74167	259
3.74533	257
3.74900	252
3.75267	246
3.75633	237
3.76000	229
3.76367	226
3.76733	221
3.77100	218
3.77467	218
3.77833	223
3.78200	224
3.78567	224
3.78933	227
3.79300	240
3.79667	255
3.80033	260
3.80400	255
3.80767	249
3.81133	240
3.81500	231
3.81867	226
3.82233	223
3.82600	226
3.82967	233
3.83333	241
3.83700	248
3.84067	253
3.84433	255
3.84800	252
3.85167	246
3.85533	236
3.85900	229
3.86267	227
3.86633	226
3.87000	225
3.87367	228
3.87733	234
3.88100	238
3.88467	244
3.88833	247
3.89200	246
3.89567	246
3.89933	246
3.90300	239
3.90667	231
3.91033	226
3.91400	222
3.91767	218
3.92133	217
3.92500	223
3.92867	236
3.93233	246
3.93600	253
3.93967	251
3.94333	242
3.94700	226
3.95067	213
3.95433	206
3.95800	196
3.96167	186
3.96533	185
3.96900	192
3.97267	198
3.97633	202
3.98000	208
3.98367	214
3.98733	214
3.99100	209
3.99467	204
3.99833	202

[Chromatogram (Ch2)]
Interval(msec)	220
# of Points	1091
Start Time(min)	0.002
End Time(min)	3.998
R.Time (min)	Intensity
0.00167	1
0.00533	1
0.00900	2
0.01267	2
0.01633	2
0.02000	2
0.02367	1
0.02733	1
0.03100	0
0.03467	-0
0.03833	-1
0.04200	-2
0.04567	-2
0.04933	-2
0.05300	-3
0.05667	-3
0.06033	-3
0.06400	-2
0.06767	-2
0.07133	-1
0.07500	-1
0.07867	-0
0.08233	0
0.08600	0
0.08967	0
0.09333	0
0.09700	0
0.10067	-0
0.10433	-0
0.10800	-0
0.11167	-1
0.11533	-1
0.11900	-0
0.12267	-1
0.12633	-1
0.13000	-1
0.13367	-0
0.13733	-0
0.14100	-0
0.14467	-1
0.14833	-1
0.15200	-1
0.15567	-0
0.15933	-0
0.16300	0
0.16667	0
0.17033	1
0.17400	1
0.17767	1
0.18133	1
0.18500	1
0.18867	1
0.19233	2
0.19600	2
0.19967	2
0.20333	2
0.20700	1
0.21067	1
0.21433	1
0.21800	1
0.22167	0
0.22533	0
0.22900	0
0.23267	0
0.23633	0
0.24000	1
0.24367	1
0.24733	2
0.25100	2
0.25467	2
0.25833	2
0.26200	2
0.26567	2
0.26933	2
0.27300	2
0.27667	1
0.28033	1
0.28400	1
0.28767	1
0.29133	1
0.29500	1
0.29867	1
0.30233	1
0.30600	0
0.30967	0
0.31333	-0
0.31700	-0
0.32067	-1
0.32433	-1
0.32800	-1
0.33167	-1
0.33533	-1
0.33900	-0
0.34267	-0
0.34633	0
0.35000	0
0.35367	1
0.35733	1
0.36100	1
0.36467	1
0.36833	2
0.37200	2
0.37567	2
0.37933	2
0.38300	2
0.38667	2
0.39033	2
0.39400	3
0.39767	3
0.40133	3
0.40500	3
0.40867	3
0.41233	3
0.41600	3
0.41967	3
0.42333	4
0.42700	4
0.43067	4
0.43433	4
0.43800	4
0.44167	4
0.44533	3
0.44900	3
0.45267	3
0.45633	3
0.46000	3
0.46367	3
0.46733	3
0.47100	3
0.47467	2
0.47833	2
0.48200	2
0.48567	2
0.48933	2
0.49300	1
0.49667	1
0.50033	0
0.50400	-0
0.50767	-1
0.51133	-2
0.51500	-2
0.51867	-2
0.52233	-2
0.52600	-2
0.52967	-2
0.53333	-1
0.53700	-1
0.54067	-1
0.54433	-1
0.54800	-1
0.55167	-0
0.55533	-0
0.55900	0
0.56267	0
0.56633	1
0.57000	1
0.57367	2
0.57733	2
0.58100	3
0.58467	3
0.58833	3
0.59200	3
0.59567	3
0.59933	3
0.60300	3
0.60667	3
0.61033	3
0.61400	3
0.61767	2
0.62133	1
0.62500	1
0.62867	-0
0.63233	-1
0.63600	-1
0.63967	-2
0.64333	-2
0.64700	-2
0.65067	-2
0.65433	-1
0.65800	-1
0.66167	-1
0.66533	-0
0.66900	-0
0.67267	0
0.67633	0
0.68000	0
0.68367	1
0.68733	1
0.69100	1
0.69467	1
0.69833	1
0.70200	1
0.70567	0
0.70933	0
0.71300	-0
0.71667	-1
0.72033	-1
0.72400	-1
0.72767	-1
0.73133	-0
0.73500	0
0.73867	0
0.74233	1
0.74600	1
0.74967	1
0.75333	1
0.75700	2
0.76067	2
0.76433	2
0.76800	2
0.77167	3
0.77533	3
0.77900	2
0.78267	2
0.78633	2
0.79000	1
0.79367	0
0.79733	0
0.80100	0
0.80467	0
0.80833	0
0.81200	0
0.81567	-0
0.81933	-0
0.82300	-1
0.82667	-1
0.83033	-1
0.83400	-1
0.83767	-1
0.84133	-1
0.84500	-1
0.84867	-1
0.85233	-0
0.85600	-0
0.85967	-0
0.86333	-0
0.86700	0
0.87067	0
0.87433	0
0.87800	0
0.88167	0
0.88533	1
0.88900	1
0.89267	1
0.89633	2
0.90000	2
0.90367	2
0.90733	3
0.91100	3
0.91467	3
0.91833	3
0.92200	3
0.92567	3
0.92933	3
0.93300	3
0.93667	3
0.94033	3
0.94400	3
0.94767	3
0.95133	2
0.95500	2
0.95867	2
0.96233	2
0.96600	2
0.96967	1
0.97333	1
0.97700	1
0.98067	1
0.98433	1
0.98800	0
0.99167	-0
0.99533	-1
0.99900	-1
1.00267	-1
1.00633	-0
1.01000	-0
1.01367	-0
1.01733	0
1.02100	1
1.02467	1
1.02833	1
1.03200	1
1.03567	1
1.03933	1
1.04300	1
1.04667	0
1.05033	0
1.05400	-0
1.05767	-1
1.06133	-1
1.06500	-1
1.06867	-1
1.07233	-1
1.07600	-1
1.07967	-1
1.08333	-1
1.08700	-2
1.09067	-2
1.09433	-2
1.09800	-2
1.10167	-2
1.10533	-2
1.10900	-2
1.11267	-3
1.11633	-3
1.12000	-3
1.12367	-3
1.12733	-3
1.13100	-3
1.13467	-2
1.13833	-2
1.14200	-2
1.14567	-2
1.14933	-2
1.15300	-2
1.15667	-2
1.16033	-1
1.16400	-1
1.16767	-1
1.17133	-1
1.17500	-1
1.17867	-1
1.18233	-0
1.18600	-0
1.18967	0
1.19333	1
1.19700	1
1.20067	1
1.20433	1
1.20800	1
1.21167	2
1.21533	2
1.21900	2
1.22267	2
1.22633	1
1.23000	1
1.23367	1
1.23733	1
1.24100	1
1.24467	0
1.24833	0
1.25200	-0
1.25567	-0
1.25933	-0
1.26300	0
1.26667	0
1.27033	1
1.27400	1
1.27767	1
1.28133	1
1.28500	1
1.28867	1
1.29233	1
1.29600	1
1.29967	1
1.30333	0
1.30700	0
1.31067	0
1.31433	-0
1.31800	-0
1.32167	-1
1.32533	-1
1.32900	-1
1.33267	-1
1.33633	-1
1.34000	-1
1.34367	-1
1.34733	-1
1.35100	-1
1.35467	-1
1.35833	-1
1.36200	-1
1.36567	-1
1.36933	-1
1.37300	-1
1.37667	-1
1.38033	-1
1.38400	-1
1.38767	-1
1.39133	-0
1.39500	-0
1.39867	-0
1.40233	-0
1.40600	-0
1.40967	-1
1.41333	-1
1.41700	-1
1.42067	-1
1.42433	-2
1.42800	-1
1.43167	-1
1.43533	-1
1.43900	-1
1.44267	-1
1.44633	-0
1.45000	0
1.45367	0
1.45733	1
1.46100	1
1.46467	1
1.46833	1
1.47200	2
1.47567	2
1.47933	2
1.48300	2
1.48667	1
1.49033	1
1.49400	1
1.49767	0
1.50133	0
1.50500	-0
1.50867	-0
1.51233	-1
1.51600	-1
1.51967	-1
1.52333	-1
1.52700	-1
1.53067	-1
1.53433	-1
1.53800	-1
1.54167	-1
1.54533	-1
1.54900	-1
1.55267	-1
1.55633	-1
1.56000	-1
1.56367	-0
1.56733	-0
1.57100	-0
1.57467	0
1.57833	0
1.58200	0
1.58567	0
1.58933	0
1.59300	0
1.59667	-0
1.60033	-1
1.60400	-2
1.60767	-3
1.61133	-4
1.61500	-6
1.61867	-9
1.62233	-11
1.62600	-14
1.62967	-18
1.63333	-21
1.63700	-25
1.64067	-29
1.64433	-33
1.64800	-37
1.65167	-42
1.65533	-46
1.65900	-50
1.66267	-55
1.66633	-60
1.67000	-65
1.67367	-70
1.67733	-75
1.68100	-80
1.68467	-85
1.68833	-89
1.69200	-93
1.69567	-96
1.69933	-98
1.70300	-100
1.70667	-101
1.71033	-102
1.71400	-103
1.71767	-103
1.72133	-103
1.72500	-104
1.72867	-104
1.73233	-104
1.73600	-104
1.73967	-104
1.74333	-103
1.74700	-103
1.75067	-102
1.75433	-103
1.75800	-103
1.76167	-104
1.76533	-106
1.76900	-108
1.77267	-110
1.77633	-111
1.78000	-111
1.78367	-112
1.78733	-112
1.79100	-112
1.79467	-113
1.79833	-113
1.80200	-113
1.80567	-114
1.80933	-114
1.81300	-114
1.81667	-115
1.82033	-115
1.82400	-115
1.82767	-114
1.83133	-114
1.83500	-113
1.83867	-112
1.84233	-111
1.84600	-110
1.84967	-109
1.85333	-109
1.85700	-109
1.86067	-109
1.86433	-110
1.86800	-111
1.87167	-112
1.87533	-112
1.87900	-113
1.88267	-113
1.88633	-112
1.89000	-112
1.89367	-112
1.89733	-112
1.90100	-112
1.90467	-112
1.90833	-112
1.91200	-111
1.91567	-110
1.91933	-110
1.92300	-110
1.92667	-110
1.93033	-110
1.93400	-110
1.93767	-110
1.94133	-110
1.94500	-110
1.94867	-109
1.95233	-109
1.95600	-109
1.95967	-108
1.96333	-108
1.96700	-107
1.97067	-106
1.97433	-105
1.97800	-105
1.98167	-105
1.98533	-104
1.98900	-104
1.99267	-104
1.99633	-103
2.00000	-104
2.00367	-104
2.00733	-104
2.01100	-104
2.01467	-103
2.01833	-103
2.02200	-103
2.02567	-103
2.02933	-103
2.03300	-103
2.03667	-103
2.04033	-103
2.04400	-102
2.04767	-102
2.05133	-102
2.05500	-101
2.05867	-101
2.06233	-100
2.06600	-100
2.06967	-100
2.07333	-100
2.07700	-100
2.08067	-100
2.08433	-99
2.08800	-100
2.09167	-100
2.09533	-99
2.09900	-99
2.10267	-99
2.10633	-98
2.11000	-97
2.11367	-96
2.11733	-95
2.12100	-95
2.12467	-95
2.12833	-95
2.13200	-96
2.13567	-96
2.13933	-96
2.14300	-96
2.14667	-95
2.15033	-95
2.15400	-94
2.15767	-93
2.16133	-92
2.16500	-92
2.16867	-91
2.17233	-91
2.17600	-91
2.17967	-91
2.18333	-91
2.18700	-91
2.19067	-90
2.19433	-89
2.19800	-89
2.20167	-88
2.20533	-88
2.20900	-88
2.21267	-88
2.21633	-87
2.22000	-87
2.22367	-87
2.22733	-87
2.23100	-86
2.23467	-86
2.23833	-86
2.24200	-85
2.24567	-85
2.24933	-85
2.25300	-84
2.25667	-84
2.26033	-83
2.26400	-83
2.26767	-83
2.27133	-83
2.27500	-84
2.27867	-83
2.28233	-83
2.28600	-83
2.28967	-82
2.29333	-82
2.29700	-81
2.30067	-81
2.30433	-81
2.30800	-80
2.31167	-80
2.31533	-80
2.31900	-81
2.32267	-81
2.32633	-81
2.33000	-80
2.33367	-80
2.33733	-80
2.34100	-79
2.34467	-77
2.34833	-76
2.35200	-74
2.35567	-72
2.35933	-70
2.36300	-68
2.36667	-66
2.37033	-63
2.37400	-60
2.37767	-57
2.38133	-54
2.38500	-50
2.38867	-46
2.39233	-42
2.39600	-37
2.39967	-33
2.40333	-29
2.40700	-25
2.41067	-21
2.41433	-18
2.41800	-16
2.42167	-13
2.42533	-12
2.42900	-10
2.43267	-9
2.43633	-8
2.44000	-7
2.44367	-6
2.44733	-5
2.45100	-4
2.45467	-4
2.45833	-3
2.46200	-3
2.46567	-3
2.46933	-3
2.47300	-2
2.47667	-2
2.48033	-1
2.48400	0
2.48767	1
2.49133	2
2.49500	3
2.49867	4
2.50233	5
2.50600	6
2.50967	7
2.51333	7
2.51700	8
2.52067	8
2.52433	8
2.52800	9
2.53167	10
2.53533	10
2.53900	11
2.54267	12
2.54633	13
2.55000	13
2.55367	14
2.55733	15
2.56100	15
2.56467	15
2.56833	16
2.57200	16
2.57567	16
2.57933	16
2.58300	15
2.58667	15
2.59033	14
2.59400	14
2.59767	14
2.60133	14
2.60500	15
2.60867	15
2.61233	15
2.61600	16
2.61967	16
2.62333	17
2.62700	17
2.63067	17
2.63433	17
2.63800	17
2.64167	17
2.64533	17
2.64900	18
2.65267	18
2.65633	19
2.66000	19
2.66367	20
2.66733	21
2.67100	21
2.67467	21
2.67833	21
2.68200	22
2.68567	22
2.68933	22
2.69300	22
2.69667	22
2.70033	23
2.70400	23
2.70767	23
2.71133	23
2.71500	23
2.71867	23
2.72233	24
2.72600	24
2.72967	25
2.73333	25
2.73700	26
2.74067	26
2.74433	27
2.74800	27
2.75167	27
2.75533	27
2.75900	28
2.76267	28
2.76633	27
2.77000	27
2.77367	27
2.77733	26
2.78100	26
2.78467	25
2.78833	25
2.79200	25
2.79567	24
2.79933	24
2.80300	24
2.80667	24
2.81033	24
2.81400	24
2.81767	24
2.82133	25
2.82500	25
2.82867	26
2.83233	26
2.83600	26
2.83967	26
2.84333	25
2.84700	23
2.85067	20
2.85433	14
2.85800	5
2.86167	-8
2.86533	-24
2.86900	-45
2.87267	-71
2.87633	-100
2.88000	-134
2.88367	-173
2.88733	-215
2.89100	-260
2.89467	-308
2.89833	-359
2.90200	-411
2.90567	-466
2.90933	-521
2.91300	-576
2.91667	-632
2.92033	-687
2.92400	-741
2.92767	-793
2.93133	-844
2.93500	-896
2.93867	-953
2.94233	-1011
2.94600	-1061
2.94967	-1093
2.95333	-1099
2.95700	-1080
2.96067	-1038
2.96433	-978
2.96800	-906
2.97167	-827
2.97533	-747
2.97900	-667
2.98267	-591
2.98633	-519
2.99000	-453
2.99367	-393
2.99733	-339
3.00100	-292
3.00467	-250
3.00833	-213
3.01200	-180
3.01567	-152
3.01933	-128
3.02300	-107
3.02667	-90
3.03033	-75
3.03400	-62
3.03767	-50
3.04133	-41
3.04500	-33
3.04867	-26
3.05233	-20
3.05600	-15
3.05967	-11
3.06333	-7
3.06700	-4
3.07067	-1
3.07433	1
3.07800	3
3.08167	5
3.08533	6
3.08900	7
3.09267	8
3.09633	9
3.10000	10
3.10367	11
3.10733	12
3.11100	12
3.11467	13
3.11833	14
3.12200	14
3.12567	15
3.12933	15
3.13300	16
3.13667	16
3.14033	16
3.14400	17
3.14767	17
3.15133	18
3.15500	18
3.15867	18
3.16233	19
3.16600	19
3.16967	19
3.17333	20
3.17700	20
3.18067	20
3.18433	20
3.18800	20
3.19167	20
3.19533	20
3.19900	20
3.20267	20
3.20633	20
3.21000	21
3.21367	21
3.21733	21
3.22100	22
3.22467	22
3.22833	23
3.23200	23
3.23567	23
3.23933	24
3.24300	24
3.24667	25
3.25033	25
3.25400	25
3.25767	25
3.26133	26
3.26500	26
3.26867	27
3.27233	27
3.27600	28
3.27967	28
3.28333	29
3.28700	29
3.29067	29
3.29433	29
3.29800	29
3.30167	30
3.30533	30
3.30900	30
3.31267	30
3.31633	30
3.32000	30
3.32367	30
3.32733	30
3.33100	29
3.33467	29
3.33833	29
3.34200	29
3.34567	29
3.34933	29
3.35300	29
3.35667	29
3.36033	29
3.36400	29
3.36767	29
3.37133	29
3.37500	30
3.37867	30
3.38233	30
3.38600	29
3.38967	29
3.39333	29
3.39700	29
3.40067	29
3.40433	28
3.40800	28
3.41167	27
3.41533	27
3.41900	27
3.42267	26
3.42633	26
3.43000	26
3.43367	26
3.43733	26
3.44100	25
3.44467	25
3.44833	25
3.45200	25
3.45567	24
3.45933	24
3.46300	25
3.46667	25
3.47033	25
3.47400	25
3.47767	25
3.48133	25
3.48500	26
3.48867	26
3.49233	26
3.49600	27
3.49967	27
3.50333	28
3.50700	28
3.51067	28
3.51433	28
3.51800	29
3.52167	29
3.52533	28
3.52900	28
3.53267	29
3.53633	29
3.54000	29
3.54367	29
3.54733	29
3.55100	29
3.55467	29
3.55833	29
3.56200	29
3.56567	29
3.56933	29
3.57300	29
3.57667	29
3.58033	29
3.58400	28
3.58767	28
3.59133	28
3.59500	27
3.59867	27
3.60233	27
3.60600	27
3.60967	27
3.61333	26
3.61700	26
3.62067	26
3.62433	26
3.62800	26
3.63167	26
3.63533	26
3.63900	26
3.64267	27
3.64633	27
3.65000	27
3.65367	27
3.65733	27
3.66100	27
3.66467	27
3.66833	27
3.67200	27
3.67567	27
3.67933	27
3.68300	28
3.68667	28
3.69033	28
3.69400	29
3.69767	29
3.70133	29
3.70500	29
3.70867	29
3.71233	29
3.71600	29
3.71967	29
3.72333	29
3.72700	29
3.73067	29
3.73433	29
3.73800	29
3.74167	29
3.74533	29
3.74900	28
3.75267	28
3.75633	28
3.76000	27
3.76367	27
3.76733	26
3.77100	26
3.77467	26
3.77833	26
3.78200	26
3.78567	26
3.78933	26
3.79300	26
3.79667	25
3.80033	25
3.80400	26
3.80767	26
3.81133	26
3.81500	27
3.81867	27
3.82233	27
3.82600	27
3.82967	27
3.83333	28
3.83700	28
3.84067	28
3.84433	29
3.84800	29
3.85167	29
3.85533	29
3.85900	29
3.86267	30
3.86633	30
3.87000	30
3.87367	30
3.87733	30
3.88100	30
3.88467	30
3.88833	29
3.89200	29
3.89567	29
3.89933	28
3.90300	28
3.90667	28
3.91033	28
3.91400	27
3.91767	27
3.92133	27
3.92500	27
3.92867	28
3.93233	28
3.93600	28
3.93967	28
3.94333	28
3.94700	28
3.95067	28
3.95433	27
3.95800	27
3.96167	27
3.96533	27
3.96900	27
3.97267	27
3.97633	27
3.98000	27
3.98367	27
3.98733	27
3.99100	27
3.99467	27
3.99833	27

[Chromatogram (Ch3)]
Interval(msec)	220
# of Points	1091
Start Time(min)	0.002
End Time(min)	3.998
R.Time (min)	Intensity
0.00167	0
0.00533	-0
0.00900	1
0.01267	2
0.01633	2
0.02000	2
0.02367	2
0.02733	3
0.03100	6
0.03467	7
0.03833	8
0.04200	10
0.04567	10
0.04933	10
0.05300	9
0.05667	6
0.06033	5
0.06400	5
0.06767	7
0.07133	7
0.07500	5
0.07867	4
0.08233	5
0.08600	6
0.08967	5
0.09333	3
0.09700	2
0.10067	2
0.10433	2
0.10800	5
0.11167	6
0.11533	6
0.11900	4
0.12267	4
0.12633	5
0.13000	5
0.13367	6
0.13733	6
0.14100	6
0.14467	3
0.14833	3
0.15200	4
0.15567	6
0.15933	5
0.16300	2
0.16667	1
0.17033	-0
0.17400	-1
0.17767	1
0.18133	4
0.18500	5
0.18867	6
0.19233	4
0.19600	4
0.19967	4
0.20333	4
0.20700	5
0.21067	6
0.21433	8
0.21800	8
0.22167	7
0.22533	6
0.22900	5
0.23267	5
0.23633	4
0.24000	4
0.24367	5
0.24733	6
0.25100	7
0.25467	7
0.25833	7
0.26200	6
0.26567	8
0.26933	8
0.27300	7
0.27667	6
0.28033	7
0.28400	8
0.28767	9
0.29133	10
0.29500	12
0.29867	11
0.30233	10
0.30600	8
0.30967	8
0.31333	8
0.31700	7
0.32067	5
0.32433	4
0.32800	5
0.33167	5
0.33533	6
0.33900	9
0.34267	9
0.34633	7
0.35000	7
0.35367	7
0.35733	7
0.36100	7
0.36467	7
0.36833	7
0.37200	7
0.37567	6
0.37933	6
0.38300	5
0.38667	6
0.39033	5
0.39400	8
0.39767	9
0.40133	8
0.40500	8
0.40867	8
0.41233	9
0.41600	11
0.41967	11
0.42333	9
0.42700	7
0.43067	6
0.43433	5
0.43800	4
0.44167	3
0.44533	5
0.44900	6
0.45267	8
0.45633	9
0.46000	9
0.46367	7
0.46733	5
0.47100	5
0.47467	3
0.47833	1
0.48200	0
0.48567	1
0.48933	3
0.49300	4
0.49667	5
0.50033	7
0.50400	8
0.50767	5
0.51133	2
0.51500	2
0.51867	4
0.52233	5
0.52600	7
0.52967	8
0.53333	7
0.53700	8
0.54067	8
0.54433	7
0.54800	6
0.55167	5
0.55533	5
0.55900	6
0.56267	6
0.56633	4
0.57000	4
0.57367	6
0.57733	10
0.58100	12
0.58467	12
0.58833	11
0.59200	9
0.59567	8
0.59933	8
0.60300	8
0.60667	8
0.61033	9
0.61400	9
0.61767	9
0.62133	8
0.62500	7
0.62867	7
0.63233	7
0.63600	7
0.63967	7
0.64333	6
0.64700	5
0.65067	3
0.65433	4
0.65800	3
0.66167	3
0.66533	5
0.66900	6
0.67267	7
0.67633	9
0.68000	9
0.68367	10
0.68733	10
0.69100	9
0.69467	7
0.69833	5
0.70200	4
0.70567	6
0.70933	7
0.71300	8
0.71667	7
0.72033	7
0.72400	7
0.72767	7
0.73133	5
0.73500	5
0.73867	6
0.74233	8
0.74600	11
0.74967	13
0.75333	12
0.75700	11
0.76067	12
0.76433	12
0.76800	13
0.77167	13
0.77533	12
0.77900	12
0.78267	12
0.78633	12
0.79000	12
0.79367	12
0.79733	11
0.80100	10
0.80467	11
0.80833	11
0.81200	11
0.81567	11
0.81933	11
0.82300	9
0.82667	7
0.83033	8
0.83400	9
0.83767	9
0.84133	9
0.84500	10
0.84867	10
0.85233	10
0.85600	9
0.85967	8
0.86333	8
0.86700	7
0.87067	7
0.87433	9
0.87800	8
0.88167	7
0.88533	6
0.88900	9
0.89267	12
0.89633	13
0.90000	12
0.90367	12
0.90733	12
0.91100	13
0.91467	13
0.91833	12
0.92200	11
0.92567	9
0.92933	8
0.93300	9
0.93667	11
0.94033	13
0.94400	12
0.94767	11
0.95133	13
0.95500	14
0.95867	12
0.96233	11
0.96600	11
0.96967	12
0.97333	13
0.97700	14
0.98067	16
0.98433	17
0.98800	18
0.99167	16
0.99533	14
0.99900	14
1.00267	15
1.00633	16
1.01000	16
1.01367	18
1.01733	20
1.02100	21
1.02467	19
1.02833	16
1.03200	15
1.03567	15
1.03933	15
1.04300	15
1.04667	13
1.05033	12
1.05400	11
1.05767	11
1.06133	11
1.06500	11
1.06867	10
1.07233	9
1.07600	9
1.07967	10
1.08333	12
1.08700	14
1.09067	16
1.09433	17
1.09800	17
1.10167	17
1.10533	19
1.10900	18
1.11267	19
1.11633	18
1.12000	17
1.12367	16
1.12733	19
1.13100	20
1.13467	19
1.13833	18
1.14200	17
1.14567	15
1.14933	13
1.15300	12
1.15667	11
1.16033	10
1.16400	12
1.16767	13
1.17133	15
1.17500	18
1.17867	20
1.18233	21
1.18600	21
1.18967	21
1.19333	22
1.19700	23
1.20067	24
1.20433	22
1.20800	19
1.21167	16
1.21533	14
1.21900	15
1.22267	16
1.22633	17
1.23000	16
1.23367	16
1.23733	17
1.24100	17
1.24467	17
1.24833	18
1.25200	20
1.25567	21
1.25933	23
1.26300	24
1.26667	26
1.27033	27
1.27400	27
1.27767	25
1.28133	22
1.28500	18
1.28867	14
1.29233	14
1.29600	14
1.29967	16
1.30333	16
1.30700	16
1.31067	17
1.31433	18
1.31800	17
1.32167	17
1.32533	16
1.32900	17
1.33267	17
1.33633	16
1.34000	16
1.34367	17
1.34733	18
1.35100	18
1.35467	17
1.35833	14
1.36200	14
1.36567	14
1.36933	14
1.37300	17
1.37667	21
1.38033	23
1.38400	24
1.38767	24
1.39133	24
1.39500	24
1.39867	24
1.40233	22
1.40600	20
1.40967	20
1.41333	18
1.41700	18
1.42067	19
1.42433	18
1.42800	18
1.43167	18
1.43533	18
1.43900	18
1.44267	19
1.44633	20
1.45000	19
1.45367	20
1.45733	19
1.46100	18
1.46467	18
1.46833	18
1.47200	17
1.47567	19
1.47933	21
1.48300	21
1.48667	23
1.49033	24
1.49400	22
1.49767	21
1.50133	20
1.50500	22
1.50867	24
1.51233	22
1.51600	21
1.51967	23
1.52333	24
1.52700	23
1.53067	23
1.53433	24
1.53800	24
1.54167	24
1.54533	24
1.54900	24
1.55267	22
1.55633	20
1.56000	19
1.56367	20
1.56733	22
1.57100	25
1.57467	25
1.57833	24
1.58200	24
1.58567	23
1.58933	24
1.59300	26
1.59667	27
1.60033	24
1.60400	22
1.60767	21
1.61133	23
1.61500	23
1.61867	23
1.62233	24
1.62600	26
1.62967	29
1.63333	30
1.63700	30
1.64067	30
1.64433	31
1.64800	32
1.65167	31
1.65533	31
1.65900	31
1.66267	32
1.66633	33
1.67000	32
1.67367	32
1.67733	32
1.68100	31
1.68467	32
1.68833	34
1.69200	35
1.69567	36
1.69933	37
1.70300	35
1.70667	36
1.71033	38
1.71400	40
1.71767	43
1.72133	44
1.72500	44
1.72867	43
1.73233	42
1.73600	41
1.73967	41
1.74333	41
1.74700	41
1.75067	42
1.75433	43
1.75800	43
1.76167	43
1.76533	43
1.76900	43
1.77267	45
1.77633	49
1.78000	52
1.78367	54
1.78733	55
1.79100	55
1.79467	53
1.79833	53
1.80200	54
1.80567	52
1.80933	51
1.81300	52
1.81667	53
1.82033	55
1.82400	57
1.82767	54
1.83133	55
1.83500	56
1.83867	58
1.84233	60
1.84600	61
1.84967	62
1.85333	62
1.85700	62
1.86067	61
1.86433	61
1.86800	64
1.87167	66
1.87533	66
1.87900	65
1.88267	64
1.88633	65
1.89000	66
1.89367	66
1.89733	67
1.90100	69
1.90467	69
1.90833	69
1.91200	69
1.91567	69
1.91933	69
1.92300	69
1.92667	71
1.93033	71
1.93400	75
1.93767	80
1.94133	81
1.94500	78
1.94867	78
1.95233	80
1.95600	82
1.95967	82
1.96333	83
1.96700	84
1.97067	86
1.97433	88
1.97800	89
1.98167	89
1.98533	88
1.98900	87
1.99267	88
1.99633	91
2.00000	94
2.00367	95
2.00733	94
2.01100	94
2.01467	97
2.01833	98
2.02200	98
2.02567	98
2.02933	99
2.03300	101
2.03667	105
2.04033	107
2.04400	111
2.04767	112
2.05133	113
2.05500	115
2.05867	115
2.06233	116
2.06600	117
2.06967	116
2.07333	115
2.07700	117
2.08067	121
2.08433	123
2.08800	127
2.09167	127
2.09533	128
2.09900	126
2.10267	127
2.10633	129
2.11000	130
2.11367	131
2.11733	133
2.12100	132
2.12467	132
2.12833	134
2.13200	136
2.13567	138
2.13933	140
2.14300	143
2.14667	148
2.15033	153
2.15400	155
2.15767	154
2.16133	153
2.16500	153
2.16867	155
2.17233	154
2.17600	153
2.17967	153
2.18333	157
2.18700	160
2.19067	164
2.19433	166
2.19800	168
2.20167	172
2.20533	175
2.20900	176
2.21267	175
2.21633	174
2.22000	174
2.22367	176
2.22733	180
2.23100	180
2.23467	184
2.23833	186
2.24200	187
2.24567	187
2.24933	187
2.25300	187
2.25667	189
2.26033	190
2.26400	192
2.26767	194
2.27133	196
2.27500	197
2.27867	198
2.28233	199
2.28600	200
2.28967	202
2.29333	203
2.29700	204
2.30067	205
2.30433	205
2.30800	205
2.31167	207
2.31533	210
2.31900	211
2.32267	212
2.32633	213
2.33000	216
2.33367	218
2.33733	220
2.34100	223
2.34467	225
2.34833	225
2.35200	228
2.35567	230
2.35933	229
2.36300	229
2.36667	231
2.37033	231
2.37400	231
2.37767	233
2.38133	235
2.38500	236
2.38867	236
2.39233	237
2.39600	239
2.39967	241
2.40333	244
2.40700	245
2.41067	246
2.41433	247
2.41800	248
2.42167	249
2.42533	249
2.42900	249
2.43267	250
2.43633	250
2.44000	252
2.44367	308
2.44733	463
2.45100	632
2.45467	771
2.45833	850
2.46200	852
2.46567	804
2.46933	745
2.47300	693
2.47667	657
2.48033	629
2.48400	593
2.48767	545
2.49133	493
2.49500	443
2.49867	404
2.50233	376
2.50600	358
2.50967	351
2.51333	355
2.51700	371
2.52067	390
2.52433	409
2.52800	422
2.53167	422
2.53533	407
2.53900	381
2.54267	349
2.54633	316
2.55000	284
2.55367	257
2.55733	237
2.56100	222
2.56467	210
2.56833	200
2.57200	193
2.57567	188
2.57933	185
2.58300	184
2.58667	185
2.59033	186
2.59400	187
2.59767	190
2.60133	192
2.60500	192
2.60867	187
2.61233	180
2.61600	173
2.61967	163
2.62333	151
2.62700	141
2.63067	134
2.63433	127
2.63800	118
2.64167	107
2.64533	97
2.64900	88
2.65267	78
2.65633	68
2.66000	57
2.66367	47
2.66733	38
2.67100	30
2.67467	25
2.67833	20
2.68200	15
2.68567	10
2.68933	8
2.69300	7
2.69667	7
2.70033	6
2.70400	7
2.70767	10
2.71133	14
2.71500	17
2.71867	21
2.72233	26
2.72600	30
2.72967	35
2.73333	39
2.73700	43
2.74067	46
2.74433	49
2.74800	52
2.75167	56
2.75533	59
2.75900	62
2.76267	65
2.76633	68
2.77000	72
2.77367	75
2.77733	79
2.78100	84
2.78467	89
2.78833	94
2.79200	99
2.79567	104
2.79933	107
2.80300	112
2.80667	118
2.81033	124
2.81400	131
2.81767	139
2.82133	149
2.82500	168
2.82867	204
2.83233	269
2.83600	382
2.83967	570
2.84333	848
2.84700	1227
2.85067	1702
2.85433	2253
2.85800	2845
2.86167	3431
2.86533	3958
2.86900	4389
2.87267	4695
2.87633	4859
2.88000	4882
2.88367	4781
2.88733	4580
2.89100	4306
2.89467	3986
2.89833	3645
2.90200	3300
2.90567	2965
2.90933	2648
2.91300	2356
2.91667	2089
2.92033	1847
2.92400	1629
2.92767	1435
2.93133	1265
2.93500	1115
2.93867	982
2.94233	866
2.94600	766
2.94967	679
2.95333	603
2.95700	537
2.96067	480
2.96433	433
2.96800	390
2.97167	353
2.97533	320
2.97900	291
2.98267	267
2.98633	248
2.99000	232
2.99367	214
2.99733	197
3.00100	185
3.00467	175
3.00833	168
3.01200	161
3.01567	155
3.01933	150
3.02300	145
3.02667	139
3.03033	136
3.03400	134
3.03767	132
3.04133	128
3.04500	124
3.04867	121
3.05233	120
3.05600	118
3.05967	116
3.06333	115
3.06700	114
3.07067	113
3.07433	112
3.07800	112
3.08167	113
3.08533	114
3.08900	113
3.09267	112
3.09633	92
3.10000	42
3.10367	-9
3.10733	-31
3.11100	-21
3.11467	9
3.11833	56
3.12200	113
3.12567	176
3.12933	241
3.13300	305
3.13667	365
3.14033	418
3.14400	466
3.14767	510
3.15133	547
3.15500	579
3.15867	607
3.16233	630
3.16600	649
3.16967	666
3.17333	678
3.17700	688
3.18067	701
3.18433	711
3.18800	718
3.19167	722
3.19533	728
3.19900	734
3.20267	740
3.20633	745
3.21000	747
3.21367	750
3.21733	756
3.22100	762
3.22467	767
3.22833	772
3.23200	775
3.23567	782
3.23933	788
3.24300	793
3.24667	796
3.25033	799
3.25400	803
3.25767	807
3.26133	814
3.26500	821
3.26867	829
3.27233	835
3.27600	840
3.27967	845
3.28333	852
3.28700	859
3.29067	862
3.29433	867
3.29800	872
3.30167	877
3.30533	883
3.30900	888
3.31267	893
3.31633	896
3.32000	900
3.32367	903
3.32733	904
3.33100	904
3.33467	905
3.33833	907
3.34200	907
3.34567	908
3.34933	911
3.35300	914
3.35667	916
3.36033	917
3.36400	917
3.36767	918
3.37133	918
3.37500	916
3.37867	912
3.38233	909
3.38600	906
3.38967	903
3.39333	898
3.39700	895
3.40067	892
3.40433	889
3.40800	885
3.41167	880
3.41533	877
3.41900	873
3.42267	871
3.42633	866
3.43000	859
3.43367	855
3.43733	853
3.44100	850
3.44467	848
3.44833	845
3.45200	842
3.45567	839
3.45933	835
3.46300	831
3.46667	828
3.47033	825
3.47400	824
3.47767	821
3.48133	818
3.48500	816
3.48867	813
3.49233	810
3.49600	808
3.49967	805
3.50333	804
3.50700	805
3.51067	804
3.51433	803
3.51800	801
3.52167	801
3.52533	800
3.52900	800
3.53267	801
3.53633	801
3.54000	800
3.54367	799
3.54733	798
3.55100	799
3.55467	798
3.55833	797
3.56200	796
3.56567	797
3.56933	797
3.57300	796
3.57667	797
3.58033	798
3.58400	797
3.58767	797
3.59133	796
3.59500	795
3.59867	794
3.60233	791
3.60600	790
3.60967	789
3.61333	788
3.61700	787
3.62067	786
3.62433	786
3.62800	784
3.63167	780
3.63533	778
3.63900	776
3.64267	773
3.64633	771
3.65000	770
3.65367	766
3.65733	762
3.66100	760
3.66467	759
3.66833	757
3.67200	754
3.67567	749
3.67933	747
3.68300	746
3.68667	746
3.69033	746
3.69400	745
3.69767	743
3.70133	739
3.70500	736
3.70867	734
3.71233	731
3.71600	731
3.71967	730
3.72333	729
3.72700	728
3.73067	728
3.73433	729
3.73800	730
3.74167	729
3.74533	726
3.74900	723
3.75267	721
3.75633	718
3.76000	715
3.76367	714
3.76733	711
3.77100	708
3.77467	706
3.77833	705
3.78200	703
3.78567	703
3.78933	702
3.79300	700
3.79667	698
3.80033	694
3.80400	693
3.80767	693
3.81133	692
3.81500	688
3.81867	685
3.82233	681
3.82600	678
3.82967	674
3.83333	672
3.83700	669
3.84067	664
3.84433	662
3.84800	661
3.85167	658
3.85533	654
3.85900	651
3.86267	649
3.86633	647
3.87000	647
3.87367	646
3.87733	645
3.88100	643
3.88467	640
3.88833	637
3.89200	636
3.89567	637
3.89933	638
3.90300	637
3.90667	635
3.91033	632
3.91400	629
3.91767	630
3.92133	631
3.92500	630
3.92867	631
3.93233	630
3.93600	628
3.93967	624
3.94333	620
3.94700	618
3.95067	618
3.95433	617
3.95800	617
3.96167	614
3.96533	611
3.96900	611
3.97267	610
3.97633	609
3.98000	608
3.98367	610
3.98733	610
3.99100	611
3.99467	610
3.99833	604

[Status Trace (Column Oven Temperature)]
Interval(msec)	1000
# of Points	240
Start Time(min)	0.005
End Time(min)	3.988
Intensity Units	
Intensity Multiplier	1
R.Time (min)	Intensity
0.00463	35.04
0.02130	35.04
0.03797	35.05
0.05463	35.06
0.07130	35.06
0.08797	35.07
0.10463	35.06
0.12130	35.06
0.13797	35.06
0.15463	35.06
0.17130	35.07
0.18797	35.05
0.20463	35.05
0.22130	35.06
0.23797	35.05
0.25463	35.05
0.27130	35.05
0.28797	35.04
0.30463	35.05
0.32130	35.05
0.33797	35.04
0.35463	35.04
0.37130	35.03
0.38797	35.01
0.40463	34.99
0.42130	34.97
0.43797	34.96
0.45463	34.96
0.47130	34.96
0.48797	34.97
0.50463	34.99
0.52130	34.99
0.53797	34.98
0.55463	34.99
0.57130	34.98
0.58797	34.97
0.60463	34.96
0.62130	34.97
0.63797	34.99
0.65463	34.99
0.67130	34.99
0.68797	34.99
0.70463	35.00
0.72130	35.01
0.73797	35.00
0.75463	34.98
0.77130	34.98
0.78797	34.98
0.80463	34.98
0.82130	34.99
0.83797	34.98
0.85463	34.99
0.87130	34.99
0.88797	34.98
0.90463	34.97
0.92130	34.97
0.93797	34.96
0.95463	34.97
0.97130	34.97
0.98797	34.98
1.00463	34.97
1.02130	34.98
1.03797	34.98
1.05463	34.99
1.07130	34.99
1.08797	35.00
1.10463	35.01
1.12130	35.01
1.13797	35.02
1.15463	35.02
1.17130	35.02
1.18797	35.01
1.20463	35.01
1.22130	35.00
1.23797	35.00
1.25463	35.00
1.27130	34.98
1.28797	34.98
1.30463	35.00
1.32130	35.00
1.33797	35.00
1.35463	34.99
1.37130	35.00
1.38797	34.99
1.40463	35.00
1.42130	35.01
1.43797	35.00
1.45463	35.00
1.47130	34.98
1.48797	34.97
1.50463	34.98
1.52130	34.99
1.53797	35.00
1.55463	34.99
1.57130	34.99
1.58797	34.99
1.60463	35.03
1.62130	35.13
1.63797	35.32
1.65463	35.58
1.67130	35.92
1.68797	36.29
1.70463	36.64
1.72130	36.97
1.73797	37.27
1.75463	37.59
1.77130	37.94
1.78797	38.28
1.80463	38.62
1.82130	38.96
1.83797	39.25
1.85463	39.56
1.87130	39.92
1.88797	40.25
1.90463	40.58
1.92130	40.90
1.93797	41.22
1.95463	41.57
1.97130	41.88
1.98797	42.19
2.00463	42.52
2.02130	42.85
2.03797	43.18
2.05463	43.51
2.07130	43.83
2.08797	44.18
2.10463	44.49
2.12130	44.82
2.13797	45.16
2.15463	45.47
2.17130	45.80
2.18797	46.13
2.20463	46.46
2.22130	46.80
2.23797	47.13
2.25463	47.45
2.27130	47.80
2.28797	48.12
2.30463	48.45
2.32130	48.78
2.33797	49.13
2.35463	49.38
2.37130	49.55
2.38797	49.60
2.40463	49.60
2.42130	49.61
2.43797	49.62
2.45463	49.64
2.47130	49.66
2.48797	49.68
2.50463	49.69
2.52130	49.72
2.53797	49.75
2.55463	49.77
2.57130	49.77
2.58797	49.80
2.60463	49.81
2.62130	49.81
2.63797	49.83
2.65463	49.82
2.67130	49.83
2.68797	49.85
2.70463	49.88
2.72130	49.87
2.73797	49.85
2.75463	49.85
2.77130	49.86
2.78797	49.89
2.80463	49.91
2.82130	49.91
2.83797	49.89
2.85463	49.89
2.87130	49.90
2.88797	49.91
2.90463	49.92
2.92130	49.92
2.93797	49.93
2.95463	49.95
2.97130	49.98
2.98797	49.98
3.00463	50.00
3.02130	50.01
3.03797	50.02
3.05463	50.03
3.07130	50.03
3.08797	50.05
3.10463	50.06
3.12130	50.07
3.13797	50.08
3.15463	50.08
3.17130	50.09
3.18797	50.11
3.20463	50.12
3.22130	50.12
3.23797	50.10
3.25463	50.09
3.27130	50.07
3.28797	50.05
3.30463	50.03
3.32130	50.02
3.33797	50.01
3.35463	49.99
3.37130	49.99
3.38797	49.98
3.40463	49.98
3.42130	50.00
3.43797	50.02
3.45463	50.04
3.47130	50.05
3.48797	50.04
3.50463	50.03
3.52130	50.04
3.53797	50.03
3.55463	50.02
3.57130	50.02
3.58797	50.02
3.60463	50.03
3.62130	50.04
3.63797	50.05
3.65463	50.05
3.67130	50.05
3.68797	50.05
3.70463	50.04
3.72130	50.05
3.73797	50.05
3.75463	50.06
3.77130	50.06
3.78797	50.07
3.80463	50.08
3.82130	50.07
3.83797	50.06
3.85463	50.05
3.87130	50.04
3.88797	50.05
3.90463	50.05
3.92130	50.05
3.93797	50.06
3.95463	50.07
3.97130	50.08
3.98797	50.08

[Status Trace (Injection Unit Temperature)]
Interval(msec)	1000
# of Points	240
Start Time(min)	0.005
End Time(min)	3.988
Intensity Units	
Intensity Multiplier	1
R.Time (min)	Intensity
0.00463	99.97
0.02130	99.98
0.03797	99.98
0.05463	99.97
0.07130	99.98
0.08797	99.98
0.10463	99.98
0.12130	99.98
0.13797	99.98
0.15463	99.98
0.17130	99.98
0.18797	99.98
0.20463	99.98
0.22130	99.98
0.23797	99.98
0.25463	99.98
0.27130	99.98
0.28797	99.98
0.30463	99.98
0.32130	99.98
0.33797	99.99
0.35463	99.99
0.37130	99.98
0.38797	99.99
0.40463	99.99
0.42130	99.98
0.43797	99.99
0.45463	99.98
0.47130	99.98
0.48797	99.98
0.50463	99.98
0.52130	99.98
0.53797	99.98
0.55463	99.99
0.57130	99.98
0.58797	99.99
0.60463	99.98
0.62130	99.98
0.63797	99.98
0.65463	99.98
0.67130	99.98
0.68797	99.98
0.70463	99.98
0.72130	99.99
0.73797	99.99
0.75463	99.98
0.77130	99.98
0.78797	99.98
0.80463	99.98
0.82130	99.98
0.83797	99.98
0.85463	99.98
0.87130	99.98
0.88797	99.98
0.90463	99.98
0.92130	99.98
0.93797	99.98
0.95463	99.98
0.97130	99.98
0.98797	99.97
1.00463	99.98
1.02130	99.98
1.03797	99.98
1.05463	99.98
1.07130	99.96
1.08797	99.98
1.10463	99.98
1.12130	99.98
1.13797	99.98
1.15463	99.98
1.17130	99.98
1.18797	99.98
1.20463	99.98
1.22130	99.98
1.23797	99.98
1.25463	99.98
1.27130	99.98
1.28797	99.98
1.30463	99.98
1.32130	99.98
1.33797	99.98
1.35463	99.98
1.37130	99.98
1.38797	99.98
1.40463	99.98
1.42130	99.98
1.43797	99.98
1.45463	99.98
1.47130	99.98
1.48797	99.99
1.50463	99.98
1.52130	99.98
1.53797	99.98
1.55463	99.99
1.57130	99.98
1.58797	99.98
1.60463	99.99
1.62130	99.98
1.63797	99.98
1.65463	99.98
1.67130	99.99
1.68797	99.98
1.70463	99.99
1.72130	99.98
1.73797	99.98
1.75463	99.99
1.77130	99.98
1.78797	99.99
1.80463	99.98
1.82130	99.98
1.83797	99.98
1.85463	99.98
1.87130	99.98
1.88797	99.98
1.90463	99.98
1.92130	99.98
1.93797	99.98
1.95463	99.97
1.97130	99.97
1.98797	99.97
2.00463	99.97
2.02130	99.97
2.03797	99.97
2.05463	99.97
2.07130	99.97
2.08797	99.97
2.10463	99.97
2.12130	99.97
2.13797	99.96
2.15463	99.96
2.17130	99.96
2.18797	99.96
2.20463	99.96
2.22130	99.96
2.23797	99.96
2.25463	99.96
2.27130	99.96
2.28797	99.96
2.30463	99.96
2.32130	99.96
2.33797	99.96
2.35463	99.96
2.37130	99.96
2.38797	99.96
2.40463	99.96
2.42130	99.96
2.43797	99.96
2.45463	99.96
2.47130	99.97
2.48797	99.96
2.50463	99.97
2.52130	99.97
2.53797	99.97
2.55463	99.97
2.57130	99.97
2.58797	99.96
2.60463	99.98
2.62130	99.98
2.63797	99.98
2.65463	99.97
2.67130	99.98
2.68797	99.99
2.70463	99.98
2.72130	99.98
2.73797	99.98
2.75463	99.99
2.77130	99.99
2.78797	99.99
2.80463	99.99
2.82130	99.99
2.83797	99.99
2.85463	99.99
2.87130	100.00
2.88797	100.00
2.90463	100.00
2.92130	100.00
2.93797	100.01
2.95463	100.01
2.97130	100.00
2.98797	100.01
3.00463	100.01
3.02130	100.01
3.03797	100.01
3.05463	100.01
3.07130	100.01
3.08797	100.01
3.10463	100.01
3.12130	100.00
3.13797	100.02
3.15463	100.02
3.17130	100.01
3.18797	100.02
3.20463	100.02
3.22130	100.02
3.23797	100.01
3.25463	100.02
3.27130	100.02
3.28797	100.03
3.30463	100.02
3.32130	100.03
3.33797	100.03
3.35463	100.03
3.37130	100.03
3.38797	100.03
3.40463	100.03
3.42130	100.03
3.43797	100.04
3.45463	100.03
3.47130	100.03
3.48797	100.03
3.50463	100.03
3.52130	100.04
3.53797	100.03
3.55463	100.03
3.57130	100.03
3.58797	100.03
3.60463	100.04
3.62130	100.03
3.63797	100.04
3.65463	100.04
3.67130	100.03
3.68797	100.04
3.70463	100.04
3.72130	100.03
3.73797	100.03
3.75463	100.04
3.77130	100.04
3.78797	100.04
3.80463	100.04
3.82130	100.04
3.83797	100.04
3.85463	100.04
3.87130	100.04
3.88797	100.04
3.90463	100.04
3.92130	100.04
3.93797	100.04
3.95463	100.04
3.97130	100.04
3.98797	100.04

[Status Trace (Carrier Gas Pressure)]
Interval(msec)	1000
# of Points	240
Start Time(min)	0.005
End Time(min)	3.988
Intensity Units	
Intensity Multiplier	1
R.Time (min)	Intensity
0.00463	58.00
0.02130	55.88
0.03797	56.70
0.05463	58.82
0.07130	59.73
0.08797	58.16
0.10463	57.97
0.12130	58.01
0.13797	58.01
0.15463	58.01
0.17130	58.00
0.18797	58.00
0.20463	58.00
0.22130	58.00
0.23797	58.00
0.25463	58.00
0.27130	58.00
0.28797	58.00
0.30463	58.00
0.32130	58.00
0.33797	58.00
0.35463	58.00
0.37130	58.00
0.38797	58.00
0.40463	58.00
0.42130	58.00
0.43797	58.00
0.45463	58.00
0.47130	58.00
0.48797	58.00
0.50463	58.00
0.52130	58.00
0.53797	58.00
0.55463	58.00
0.57130	58.00
0.58797	58.00
0.60463	58.00
0.62130	58.00
0.63797	58.00
0.65463	58.00
0.67130	58.00
0.68797	58.00
0.70463	58.00
0.72130	58.00
0.73797	58.00
0.75463	58.00
0.77130	58.00
0.78797	58.00
0.80463	58.00
0.82130	58.00
0.83797	58.00
0.85463	58.00
0.87130	58.00
0.88797	58.00
0.90463	58.00
0.92130	58.00
0.93797	58.00
0.95463	58.00
0.97130	58.00
0.98797	58.00
1.00463	58.00
1.02130	58.00
1.03797	58.00
1.05463	58.00
1.07130	58.00
1.08797	58.00
1.10463	58.00
1.12130	58.00
1.13797	58.00
1.15463	58.00
1.17130	58.00
1.18797	58.00
1.20463	58.00
1.22130	58.00
1.23797	58.00
1.25463	58.00
1.27130	58.00
1.28797	58.00
1.30463	58.00
1.32130	58.00
1.33797	58.00
1.35463	58.00
1.37130	58.00
1.38797	58.00
1.40463	58.00
1.42130	58.00
1.43797	58.00
1.45463	58.00
1.47130	58.00
1.48797	58.00
1.50463	58.00
1.52130	58.00
1.53797	58.00
1.55463	58.00
1.57130	58.00
1.58797	58.00
1.60463	58.00
1.62130	58.00
1.63797	58.01
1.65463	58.01
1.67130	58.01
1.68797	58.00
1.70463	58.00
1.72130	58.00
1.73797	58.00
1.75463	58.00
1.77130	58.00
1.78797	58.00
1.80463	58.00
1.82130	58.00
1.83797	58.00
1.85463	58.00
1.87130	58.00
1.88797	58.00
1.90463	58.00
1.92130	58.00
1.93797	58.00
1.95463	58.00
1.97130	58.00
1.98797	58.00
2.00463	58.00
2.02130	58.00
2.03797	58.00
2.05463	58.00
2.07130	58.00
2.08797	58.00
2.10463	58.00
2.12130	58.00
2.13797	58.00
2.15463	58.00
2.17130	58.00
2.18797	58.00
2.20463	58.00
2.22130	58.00
2.23797	58.00
2.25463	58.00
2.27130	58.00
2.28797	58.00
2.30463	58.00
2.32130	58.00
2.33797	58.00
2.35463	58.00
2.37130	58.00
2.38797	57.99
2.40463	58.00
2.42130	58.00
2.43797	58.00
2.45463	58.00
2.47130	58.00
2.48797	58.00
2.50463	57.99
2.52130	57.99
2.53797	57.99
2.55463	58.00
2.57130	58.00
2.58797	58.00
2.60463	58.00
2.62130	58.00
2.63797	58.00
2.65463	58.00
2.67130	58.00
2.68797	58.00
2.70463	58.00
2.72130	58.00
2.73797	58.00
2.75463	58.00
2.77130	58.00
2.78797	58.00
2.80463	58.00
2.82130	58.00
2.83797	58.00
2.85463	58.00
2.87130	58.00
2.88797	58.00
2.90463	58.00
2.92130	58.00
2.93797	58.00
2.95463	58.00
2.97130	58.00
2.98797	58.00
3.00463	58.00
3.02130	58.00
3.03797	58.00
3.05463	58.00
3.07130	58.00
3.08797	58.00
3.10463	58.00
3.12130	58.00
3.13797	58.00
3.15463	58.00
3.17130	58.00
3.18797	58.00
3.20463	58.00
3.22130	58.00
3.23797	58.00
3.25463	58.00
3.27130	58.00
3.28797	58.00
3.30463	58.00
3.32130	58.00
3.33797	58.00
3.35463	58.00
3.37130	58.00
3.38797	58.00
3.40463	58.00
3.42130	58.00
3.43797	58.00
3.45463	58.00
3.47130	58.00
3.48797	58.00
3.50463	58.00
3.52130	58.00
3.53797	58.00
3.55463	58.00
3.57130	58.00
3.58797	58.00
3.60463	58.00
3.62130	58.00
3.63797	58.00
3.65463	58.00
3.67130	58.00
3.68797	58.00
3.70463	58.00
3.72130	58.00
3.73797	58.00
3.75463	58.00
3.77130	58.00
3.78797	58.00
3.80463	58.00
3.82130	58.00
3.83797	58.00
3.85463	58.00
3.87130	58.00
3.88797	58.00
3.90463	58.00
3.92130	58.00
3.93797	58.00
3.95463	58.00
3.97130	58.00
3.98797	58.00

[Status Trace (Carrier Gas Flow)]
Interval(msec)	1000
# of Points	240
Start Time(min)	0.005
End Time(min)	3.988
Intensity Units	
Intensity Multiplier	1
R.Time (min)	Intensity
0.00463	34.51
0.02130	34.56
0.03797	34.55
0.05463	34.54
0.07130	34.49
0.08797	34.52
0.10463	34.52
0.12130	34.52
0.13797	34.52
0.15463	34.52
0.17130	34.51
0.18797	34.52
0.20463	34.52
0.22130	34.51
0.23797	34.52
0.25463	34.52
0.27130	34.52
0.28797	34.52
0.30463	34.52
0.32130	34.52
0.33797	34.52
0.35463	34.51
0.37130	34.52
0.38797	34.52
0.40463	34.52
0.42130	34.52
0.43797	34.52
0.45463	34.52
0.47130	34.52
0.48797	34.52
0.50463	34.51
0.52130	34.52
0.53797	34.52
0.55463	34.52
0.57130	34.51
0.58797	34.52
0.60463	34.52
0.62130	34.52
0.63797	34.52
0.65463	34.52
0.67130	34.52
0.68797	34.52
0.70463	34.52
0.72130	34.52
0.73797	34.52
0.75463	34.51
0.77130	34.52
0.78797	34.52
0.80463	34.52
0.82130	34.51
0.83797	34.52
0.85463	34.52
0.87130	34.52
0.88797	34.52
0.90463	34.52
0.92130	34.52
0.93797	34.52
0.95463	34.52
0.97130	34.52
0.98797	34.52
1.00463	34.52
1.02130	34.52
1.03797	34.52
1.05463	34.52
1.07130	34.52
1.08797	34.52
1.10463	34.52
1.12130	34.52
1.13797	34.52
1.15463	34.51
1.17130	34.52
1.18797	34.52
1.20463	34.51
1.22130	34.52
1.23797	34.52
1.25463	34.52
1.27130	34.52
1.28797	34.52
1.30463	34.52
1.32130	34.52
1.33797	34.51
1.35463	34.52
1.37130	34.52
1.38797	34.52
1.40463	34.52
1.42130	34.52
1.43797	34.52
1.45463	34.52
1.47130	34.52
1.48797	34.53
1.50463	34.52
1.52130	34.52
1.53797	34.51
1.55463	34.52
1.57130	34.52
1.58797	34.52
1.60463	34.52
1.62130	34.52
1.63797	34.52
1.65463	34.52
1.67130	34.52
1.68797	34.52
1.70463	34.52
1.72130	34.52
1.73797	34.51
1.75463	34.52
1.77130	34.52
1.78797	34.52
1.80463	34.53
1.82130	34.52
1.83797	34.52
1.85463	34.52
1.87130	34.51
1.88797	34.52
1.90463	34.52
1.92130	34.52
1.93797	34.52
1.95463	34.52
1.97130	34.52
1.98797	34.51
2.00463	34.52
2.02130	34.52
2.03797	34.52
2.05463	34.52
2.07130	34.52
2.08797	34.52
2.10463	34.52
2.12130	34.52
2.13797	34.52
2.15463	34.52
2.17130	34.52
2.18797	34.51
2.20463	34.52
2.22130	34.52
2.23797	34.52
2.25463	34.52
2.27130	34.53
2.28797	34.52
2.30463	34.52
2.32130	34.52
2.33797	34.52
2.35463	34.52
2.37130	34.52
2.38797	34.52
2.40463	34.52
2.42130	34.51
2.43797	34.52
2.45463	34.52
2.47130	34.52
2.48797	34.51
2.50463	34.59
2.52130	34.51
2.53797	34.52
2.55463	34.53
2.57130	34.52
2.58797	34.52
2.60463	34.52
2.62130	34.52
2.63797	34.52
2.65463	34.52
2.67130	34.52
2.68797	34.52
2.70463	34.51
2.72130	34.52
2.73797	34.52
2.75463	34.52
2.77130	34.52
2.78797	34.52
2.80463	34.52
2.82130	34.52
2.83797	34.52
2.85463	34.52
2.87130	34.52
2.88797	34.52
2.90463	34.52
2.92130	34.52
2.93797	34.52
2.95463	34.52
2.97130	34.51
2.98797	34.52
3.00463	34.52
3.02130	34.52
3.03797	34.52
3.05463	34.51
3.07130	34.52
3.08797	34.52
3.10463	34.52
3.12130	34.52
3.13797	34.51
3.15463	34.52
3.17130	34.51
3.18797	34.51
3.20463	34.51
3.22130	34.52
3.23797	34.52
3.25463	34.51
3.27130	34.52
3.28797	34.52
3.30463	34.52
3.32130	34.52
3.33797	34.52
3.35463	34.52
3.37130	34.52
3.38797	34.52
3.40463	34.52
3.42130	34.52
3.43797	34.52
3.45463	34.52
3.47130	34.52
3.48797	34.51
3.50463	34.52
3.52130	34.52
3.53797	34.52
3.55463	34.52
3.57130	34.52
3.58797	34.52
3.60463	34.52
3.62130	34.52
3.63797	34.52
3.65463	34.52
3.67130	34.52
3.68797	34.52
3.70463	34.52
3.72130	34.51
3.73797	34.52
3.75463	34.52
3.77130	34.53
3.78797	34.52
3.80463	34.52
3.82130	34.52
3.83797	34.52
3.85463	34.52
3.87130	34.52
3.88797	34.52
3.90463	34.52
3.92130	34.52
3.93797	34.51
3.95463	34.52
3.97130	34.52
3.98797	34.52

[Status Trace (Column Flow)]
Interval(msec)	1000
# of Points	240
Start Time(min)	0.005
End Time(min)	3.988
Intensity Units	
Intensity Multiplier	1
R.Time (min)	Intensity
0.00463	5.54
0.02130	5.29
0.03797	5.39
0.05463	5.63
0.07130	5.74
0.08797	5.55
0.10463	5.53
0.12130	5.54
0.13797	5.54
0.15463	5.54
0.17130	5.54
0.18797	5.54
0.20463	5.54
0.22130	5.54
0.23797	5.54
0.25463	5.54
0.27130	5.54
0.28797	5.54
0.30463	5.54
0.32130	5.54
0.33797	5.54
0.35463	5.54
0.37130	5.54
0.38797	5.54
0.40463	5.54
0.42130	5.54
0.43797	5.54
0.45463	5.54
0.47130	5.54
0.48797	5.54
0.50463	5.54
0.52130	5.54
0.53797	5.54
0.55463	5.54
0.57130	5.54
0.58797	5.54
0.60463	5.54
0.62130	5.54
0.63797	5.54
0.65463	5.54
0.67130	5.54
0.68797	5.54
0.70463	5.54
0.72130	5.54
0.73797	5.54
0.75463	5.54
0.77130	5.54
0.78797	5.54
0.80463	5.54
0.82130	5.54
0.83797	5.54
0.85463	5.54
0.87130	5.54
0.88797	5.54
0.90463	5.54
0.92130	5.54
0.93797	5.54
0.95463	5.54
0.97130	5.54
0.98797	5.54
1.00463	5.54
1.02130	5.54
1.03797	5.54
1.05463	5.54
1.07130	5.54
1.08797	5.54
1.10463	5.54
1.12130	5.54
1.13797	5.54
1.15463	5.54
1.17130	5.54
1.18797	5.54
1.20463	5.54
1.22130	5.54
1.23797	5.54
1.25463	5.54
1.27130	5.54
1.28797	5.54
1.30463	5.54
1.32130	5.54
1.33797	5.54
1.35463	5.54
1.37130	5.54
1.38797	5.54
1.40463	5.54
1.42130	5.54
1.43797	5.54
1.45463	5.54
1.47130	5.54
1.48797	5.54
1.50463	5.54
1.52130	5.54
1.53797	5.54
1.55463	5.54
1.57130	5.54
1.58797	5.54
1.60463	5.54
1.62130	5.53
1.63797	5.53
1.65463	5.52
1.67130	5.51
1.68797	5.50
1.70463	5.49
1.72130	5.48
1.73797	5.47
1.75463	5.46
1.77130	5.45
1.78797	5.44
1.80463	5.43
1.82130	5.41
1.83797	5.41
1.85463	5.40
1.87130	5.39
1.88797	5.38
1.90463	5.37
1.92130	5.36
1.93797	5.35
1.95463	5.34
1.97130	5.33
1.98797	5.32
2.00463	5.31
2.02130	5.30
2.03797	5.29
2.05463	5.28
2.07130	5.27
2.08797	5.26
2.10463	5.25
2.12130	5.24
2.13797	5.23
2.15463	5.22
2.17130	5.21
2.18797	5.20
2.20463	5.19
2.22130	5.18
2.23797	5.17
2.25463	5.16
2.27130	5.16
2.28797	5.15
2.30463	5.14
2.32130	5.13
2.33797	5.12
2.35463	5.11
2.37130	5.11
2.38797	5.10
2.40463	5.10
2.42130	5.10
2.43797	5.10
2.45463	5.10
2.47130	5.10
2.48797	5.10
2.50463	5.10
2.52130	5.10
2.53797	5.10
2.55463	5.10
2.57130	5.10
2.58797	5.10
2.60463	5.10
2.62130	5.10
2.63797	5.10
2.65463	5.10
2.67130	5.10
2.68797	5.10
2.70463	5.10
2.72130	5.10
2.73797	5.10
2.75463	5.10
2.77130	5.10
2.78797	5.10
2.80463	5.10
2.82130	5.10
2.83797	5.10
2.85463	5.10
2.87130	5.10
2.88797	5.10
2.90463	5.10
2.92130	5.10
2.93797	5.10
2.95463	5.09
2.97130	5.09
2.98797	5.09
3.00463	5.09
3.02130	5.09
3.03797	5.09
3.05463	5.09
3.07130	5.09
3.08797	5.09
3.10463	5.09
3.12130	5.09
3.13797	5.09
3.15463	5.09
3.17130	5.09
3.18797	5.09
3.20463	5.09
3.22130	5.09
3.23797	5.09
3.25463	5.09
3.27130	5.09
3.28797	5.09
3.30463	5.09
3.32130	5.09
3.33797	5.09
3.35463	5.09
3.37130	5.09
3.38797	5.09
3.40463	5.09
3.42130	5.09
3.43797	5.09
3.45463	5.09
3.47130	5.09
3.48797	5.09
3.50463	5.09
3.52130	5.09
3.53797	5.09
3.55463	5.09
3.57130	5.09
3.58797	5.09
3.60463	5.09
3.62130	5.09
3.63797	5.09
3.65463	5.09
3.67130	5.09
3.68797	5.09
3.70463	5.09
3.72130	5.09
3.73797	5.09
3.75463	5.09
3.77130	5.09
3.78797	5.09
3.80463	5.09
3.82130	5.09
3.83797	5.09
3.85463	5.09
3.87130	5.09
3.88797	5.09
3.90463	5.09
3.92130	5.09
3.93797	5.09
3.95463	5.09
3.97130	5.09
3.98797	5.09

[Status Trace (Linear Velocity)]
Interval(msec)	1000
# of Points	240
Start Time(min)	0.005
End Time(min)	3.988
Intensity Units	
Intensity Multiplier	1
R.Time (min)	Intensity
0.00463	39.02
0.02130	37.63
0.03797	38.16
0.05463	39.55
0.07130	40.15
0.08797	39.12
0.10463	39.00
0.12130	39.02
0.13797	39.02
0.15463	39.02
0.17130	39.02
0.18797	39.02
0.20463	39.02
0.22130	39.02
0.23797	39.02
0.25463	39.02
0.27130	39.02
0.28797	39.02
0.30463	39.02
0.32130	39.02
0.33797	39.02
0.35463	39.02
0.37130	39.02
0.38797	39.02
0.40463	39.02
0.42130	39.02
0.43797	39.02
0.45463	39.02
0.47130	39.03
0.48797	39.02
0.50463	39.02
0.52130	39.02
0.53797	39.02
0.55463	39.02
0.57130	39.02
0.58797	39.02
0.60463	39.02
0.62130	39.02
0.63797	39.02
0.65463	39.02
0.67130	39.02
0.68797	39.02
0.70463	39.02
0.72130	39.02
0.73797	39.02
0.75463	39.02
0.77130	39.02
0.78797	39.02
0.80463	39.02
0.82130	39.02
0.83797	39.02
0.85463	39.02
0.87130	39.02
0.88797	39.02
0.90463	39.02
0.92130	39.02
0.93797	39.02
0.95463	39.02
0.97130	39.02
0.98797	39.02
1.00463	39.02
1.02130	39.02
1.03797	39.02
1.05463	39.02
1.07130	39.02
1.08797	39.02
1.10463	39.02
1.12130	39.02
1.13797	39.02
1.15463	39.02
1.17130	39.02
1.18797	39.02
1.20463	39.02
1.22130	39.02
1.23797	39.02
1.25463	39.02
1.27130	39.02
1.28797	39.02
1.30463	39.02
1.32130	39.02
1.33797	39.02
1.35463	39.02
1.37130	39.02
1.38797	39.02
1.40463	39.02
1.42130	39.02
1.43797	39.02
1.45463	39.02
1.47130	39.02
1.48797	39.02
1.50463	39.02
1.52130	39.02
1.53797	39.02
1.55463	39.02
1.57130	39.02
1.58797	39.02
1.60463	39.02
1.62130	39.01
1.63797	38.99
1.65463	38.97
1.67130	38.94
1.68797	38.90
1.70463	38.86
1.72130	38.83
1.73797	38.80
1.75463	38.77
1.77130	38.74
1.78797	38.71
1.80463	38.68
1.82130	38.64
1.83797	38.61
1.85463	38.59
1.87130	38.55
1.88797	38.52
1.90463	38.49
1.92130	38.46
1.93797	38.43
1.95463	38.40
1.97130	38.37
1.98797	38.34
2.00463	38.31
2.02130	38.28
2.03797	38.25
2.05463	38.22
2.07130	38.19
2.08797	38.16
2.10463	38.13
2.12130	38.10
2.13797	38.07
2.15463	38.04
2.17130	38.01
2.18797	37.98
2.20463	37.95
2.22130	37.92
2.23797	37.89
2.25463	37.86
2.27130	37.83
2.28797	37.80
2.30463	37.77
2.32130	37.74
2.33797	37.71
2.35463	37.69
2.37130	37.67
2.38797	37.67
2.40463	37.67
2.42130	37.67
2.43797	37.67
2.45463	37.67
2.47130	37.67
2.48797	37.66
2.50463	37.65
2.52130	37.65
2.53797	37.66
2.55463	37.66
2.57130	37.66
2.58797	37.65
2.60463	37.65
2.62130	37.65
2.63797	37.65
2.65463	37.65
2.67130	37.65
2.68797	37.65
2.70463	37.65
2.72130	37.65
2.73797	37.65
2.75463	37.65
2.77130	37.65
2.78797	37.65
2.80463	37.64
2.82130	37.64
2.83797	37.65
2.85463	37.65
2.87130	37.65
2.88797	37.64
2.90463	37.64
2.92130	37.64
2.93797	37.64
2.95463	37.64
2.97130	37.64
2.98797	37.64
3.00463	37.64
3.02130	37.64
3.03797	37.63
3.05463	37.63
3.07130	37.63
3.08797	37.63
3.10463	37.63
3.12130	37.63
3.13797	37.63
3.15463	37.63
3.17130	37.63
3.18797	37.63
3.20463	37.63
3.22130	37.63
3.23797	37.63
3.25463	37.63
3.27130	37.63
3.28797	37.63
3.30463	37.63
3.32130	37.64
3.33797	37.64
3.35463	37.64
3.37130	37.64
3.38797	37.64
3.40463	37.64
3.42130	37.64
3.43797	37.63
3.45463	37.63
3.47130	37.63
3.48797	37.63
3.50463	37.63
3.52130	37.63
3.53797	37.63
3.55463	37.63
3.57130	37.63
3.58797	37.63
3.60463	37.63
3.62130	37.63
3.63797	37.63
3.65463	37.63
3.67130	37.63
3.68797	37.63
3.70463	37.63
3.72130	37.63
3.73797	37.63
3.75463	37.63
3.77130	37.63
3.78797	37.63
3.80463	37.63
3.82130	37.63
3.83797	37.63
3.85463	37.63
3.87130	37.63
3.88797	37.63
3.90463	37.63
3.92130	37.63
3.93797	37.63
3.95463	37.63
3.97130	37.63
3.98797	37.63

