[Header]
Application Name	LabSolutions
Version	5.110
Data File Name	C:\Users\User\Desktop\GC Analyses\Jack\Nachusa Grasslands Sampling\T3 Timepoint July 12th\T3_07122022_005.gcd
Output Date	3/14/2023
Output Time	3:43:30 PM

[File Information]
Type	Data File
Generated	3/13/2023 2:55:38 PM
Generated by	System Administrator
Modified	3/13/2023 3:02:04 PM
Modified by	System Administrator

[Sample Information]
Operator Name	System Administrator
Acquired	3/13/2023 2:58:04 PM
Sample Type	0:Unknown
Level	0
Sample Name	005
Sample ID	005
ISTD Amount1	1
ISTD Amount2	1
ISTD Amount3	1
ISTD Amount4	1
ISTD Amount5	1
ISTD Amount6	1
ISTD Amount7	1
ISTD Amount8	1
ISTD Amount9	1
ISTD Amount10	1
ISTD Amount11	1
ISTD Amount12	1
ISTD Amount13	1
ISTD Amount14	1
ISTD Amount15	1
ISTD Amount16	1
ISTD Amount17	1
ISTD Amount18	1
ISTD Amount19	1
ISTD Amount20	1
ISTD Amount21	1
ISTD Amount22	1
ISTD Amount23	1
ISTD Amount24	1
ISTD Amount25	1
ISTD Amount26	1
ISTD Amount27	1
ISTD Amount28	1
ISTD Amount29	1
ISTD Amount30	1
ISTD Amount31	1
ISTD Amount32	1
Sample Amount	1
Dilution Factor	1
Vial#	4
Injection Volume	1
Injection Count	1
Bar Code	

[Original Files]
Data File	C:\Users\User\Desktop\GC Analyses\Jack\Nachusa Grasslands Sampling\T3 Timepoint July 12th\T3_07122022_005.gcd
Method File	C:\LabSolutions\Data\GHG_4min_2022\ghg3_togas_w_acet_4 min_new_int.gcm
Batch File	C:\LabSolutions\Data\AutoSamplerTesting\T3_07122022.gcb
Report Format File	c:\LabSolutions\System\DEFAULT.lsr

[File Description]


[Configuration]
Instrument Name	C0B7VH3-Instrument1
Instrument #	1
Line #	1
# of Detectors	3
Detector ID	DET#1	DET#2	DET#3
Detector Name	FID	PTCD	ECD
# of Channels	1	1	1

[Peak Table(Ch1)]
# of Peaks	3
Peak#	R.Time	I.Time	F.Time	Area	Height	A/H	Conc.	Mark	ID#	Name	k'	Plate #	Plate Ht.	Tailing	Resolution	Sep.Factor	Area Ratio	Height Ratio	Conc. %	Norm Conc.
1	1.461	1.439	1.501	2442	1515	1.612	17.240	   	1	CO	0.000	14390	10.424	1.468	0.000	0.000	0	0	1.826	1.826
2	1.571	1.538	1.626	20576	10467	1.966	397.863	   	2	CH4	0.075	11539	13.000	1.160	2.052	0.000	0	0	42.137	42.137
3	2.000	1.952	2.356	2108195	1017504	2.072	529.100	   	3	CO2	0.369	17466	8.588	1.201	7.208	4.900	0	0	56.037	56.037

[Peak Table(Ch2)]
# of Peaks	0

[Peak Table(Ch3)]
# of Peaks	5
Peak#	R.Time	I.Time	F.Time	Area	Height	A/H	Conc.	Mark	ID#	Name	k'	Plate #	Plate Ht.	Tailing	Resolution	Sep.Factor	Area Ratio	Height Ratio	Conc. %	Norm Conc.
1	2.462	2.341	2.506	1366	449	3.045	0.000	   			0.000	10556	14.210	0.000	0.000	0.000	0	0	0.000	0.000
2	2.524	2.506	2.572	751	256	2.928	0.000	 V 			0.025	4217	35.574	0.000	0.496	0.000	0	0	0.000	0.000
3	2.605	2.572	2.664	494	137	3.612	0.000	 V 			0.058	2122	70.698	0.000	0.423	2.294	0	0	0.000	0.000
4	2.880	2.693	3.129	57479	14916	3.854	1.468	   	1	N2O	0.170	12777	11.740	1.571	1.676	2.923	0	0	100.000	100.000
5	3.441	3.254	3.602	420	32	13.132	0.000	   	2	SF6	0.398	2860	52.452	0.942	3.123	2.342	0	0	0.000	0.000

[Compound Results(Ch1)]
# of IDs	6
ID#	Name	R.Time	Area	Height	Conc.	Curve	3rd	2nd	1st	Constant	Area Ratio	Height Ratio	Conc. %	Norm Conc.
1	CO	1.461	2442	1515	17.240	Linear	0.000000e+00	0.000000e+00	1.416423e+002	0.000000e+00	0	0	1.826	1.826
2	CH4	1.571	20576	10467	397.863	Linear	0.000000e+00	0.000000e+00	5.171738e+001	0.000000e+00	0	0	42.137	42.137
3	CO2	2.000	2108195	1017504	529.100	Linear	0.000000e+00	0.000000e+00	3.984494e+003	0.000000e+00	0	0	56.037	56.037
4	Ethylene	0.000	0	0	0.000	Linear	0.000000e+00	0.000000e+00	0.000000e+00	0.000000e+00	0	0	0.000	0.000
5	Acetylene	0.000	0	0	0.000	Linear	0.000000e+00	0.000000e+00	0.000000e+00	0.000000e+00	0	0	0.000	0.000
6	Ethane	0.000	0	0	0.000	Linear	0.000000e+00	0.000000e+00	0.000000e+00	0.000000e+00	0	0	0.000	0.000

[Compound Results(Ch2)]
# of IDs	5
ID#	Name	R.Time	Area	Height	Conc.	Curve	3rd	2nd	1st	Constant	Area Ratio	Height Ratio	Conc. %	Norm Conc.
1	Hydrogen	0.000	0	0	0.000	Linear	0.000000e+00	0.000000e+00	0.000000e+00	0.000000e+00	0	0	0.000	0.000
2	Oxygen	0.000	0	0	0.000	Linear	0.000000e+00	0.000000e+00	0.000000e+00	0.000000e+00	0	0	0.000	0.000
3	Nitrogen	0.000	0	0	0.000	Linear	0.000000e+00	0.000000e+00	0.000000e+00	0.000000e+00	0	0	0.000	0.000
4	Methane	0.000	0	0	0.000	Linear	0.000000e+00	0.000000e+00	0.000000e+00	0.000000e+00	0	0	0.000	0.000
5	Carbon Monoxide	0.000	0	0	0.000	Linear	0.000000e+00	0.000000e+00	0.000000e+00	0.000000e+00	0	0	0.000	0.000

[Compound Results(Ch3)]
# of IDs	2
ID#	Name	R.Time	Area	Height	Conc.	Curve	3rd	2nd	1st	Constant	Area Ratio	Height Ratio	Conc. %	Norm Conc.
1	N2O	2.880	57479	14916	1.468	Linear	0.000000e+00	0.000000e+00	3.915173e+004	0.000000e+00	0	0	100.000	100.000
2	SF6	3.441	420	32	0.000	Linear	0.000000e+00	0.000000e+00	0.000000e+00	0.000000e+00	0	0	0.000	0.000

[Group Results(Ch1)]
# of Groups	0

[Group Results(Ch2)]
# of Groups	0

[Group Results(Ch3)]
# of Groups	0

[Chromatogram (Ch1)]
Interval(msec)	220
# of Points	1091
Start Time(min)	0.002
End Time(min)	3.998
R.Time (min)	Intensity
0.00167	7
0.00533	29
0.00900	37
0.01267	34
0.01633	23
0.02000	10
0.02367	1
0.02733	3
0.03100	12
0.03467	10
0.03833	-1
0.04200	-3
0.04567	-1
0.04933	4
0.05300	7
0.05667	23
0.06033	39
0.06400	35
0.06767	18
0.07133	-2
0.07500	-19
0.07867	-26
0.08233	-21
0.08600	-8
0.08967	1
0.09333	3
0.09700	3
0.10067	-0
0.10433	-2
0.10800	-2
0.11167	-4
0.11533	-8
0.11900	-9
0.12267	-4
0.12633	1
0.13000	-0
0.13367	6
0.13733	4
0.14100	-3
0.14467	-10
0.14833	-16
0.15200	-16
0.15567	-11
0.15933	-4
0.16300	-6
0.16667	-12
0.17033	-19
0.17400	-21
0.17767	-18
0.18133	-15
0.18500	-16
0.18867	-12
0.19233	-7
0.19600	1
0.19967	5
0.20333	8
0.20700	10
0.21067	13
0.21433	11
0.21800	7
0.22167	6
0.22533	12
0.22900	20
0.23267	27
0.23633	30
0.24000	26
0.24367	18
0.24733	5
0.25100	-11
0.25467	-20
0.25833	-19
0.26200	-17
0.26567	-16
0.26933	-8
0.27300	2
0.27667	4
0.28033	1
0.28400	-6
0.28767	-12
0.29133	-15
0.29500	-19
0.29867	-29
0.30233	-35
0.30600	-34
0.30967	-26
0.31333	-15
0.31700	-7
0.32067	0
0.32433	5
0.32800	7
0.33167	7
0.33533	5
0.33900	-1
0.34267	-7
0.34633	-10
0.35000	-6
0.35367	-7
0.35733	-10
0.36100	-18
0.36467	-25
0.36833	-25
0.37200	-17
0.37567	-9
0.37933	-6
0.38300	-6
0.38667	-9
0.39033	-13
0.39400	-19
0.39767	-19
0.40133	-10
0.40500	9
0.40867	18
0.41233	18
0.41600	10
0.41967	-0
0.42333	-8
0.42700	-13
0.43067	-16
0.43433	-12
0.43800	-4
0.44167	0
0.44533	4
0.44900	5
0.45267	7
0.45633	12
0.46000	8
0.46367	-5
0.46733	-16
0.47100	-29
0.47467	-34
0.47833	-22
0.48200	-12
0.48567	-12
0.48933	-14
0.49300	-15
0.49667	-13
0.50033	-9
0.50400	-6
0.50767	-0
0.51133	4
0.51500	8
0.51867	10
0.52233	7
0.52600	1
0.52967	-8
0.53333	-14
0.53700	-20
0.54067	-27
0.54433	-33
0.54800	-31
0.55167	-29
0.55533	-25
0.55900	-22
0.56267	-19
0.56633	-17
0.57000	-12
0.57367	-8
0.57733	-7
0.58100	-8
0.58467	-15
0.58833	-26
0.59200	-31
0.59567	-27
0.59933	-23
0.60300	-18
0.60667	-12
0.61033	-9
0.61400	-10
0.61767	-13
0.62133	-17
0.62500	-17
0.62867	-14
0.63233	-10
0.63600	-13
0.63967	-21
0.64333	-26
0.64700	-24
0.65067	-18
0.65433	-7
0.65800	-2
0.66167	-4
0.66533	-13
0.66900	-27
0.67267	-43
0.67633	-49
0.68000	-42
0.68367	-37
0.68733	-34
0.69100	-25
0.69467	-16
0.69833	-11
0.70200	-9
0.70567	-13
0.70933	-19
0.71300	-17
0.71667	-20
0.72033	-28
0.72400	-34
0.72767	-36
0.73133	-35
0.73500	-34
0.73867	-30
0.74233	-27
0.74600	-29
0.74967	-30
0.75333	-31
0.75700	-33
0.76067	-39
0.76433	-47
0.76800	-51
0.77167	-50
0.77533	-43
0.77900	-39
0.78267	-38
0.78633	-36
0.79000	-39
0.79367	-46
0.79733	-54
0.80100	-59
0.80467	-52
0.80833	-46
0.81200	-44
0.81567	-43
0.81933	-47
0.82300	-56
0.82667	-64
0.83033	-63
0.83400	-55
0.83767	-47
0.84133	-43
0.84500	-45
0.84867	-44
0.85233	-38
0.85600	-32
0.85967	-30
0.86333	-28
0.86700	-31
0.87067	-38
0.87433	-44
0.87800	-45
0.88167	-46
0.88533	-44
0.88900	-44
0.89267	-49
0.89633	-54
0.90000	-55
0.90367	-52
0.90733	-46
0.91100	-39
0.91467	-35
0.91833	-34
0.92200	-30
0.92567	-22
0.92933	-17
0.93300	-20
0.93667	-27
0.94033	-31
0.94400	-36
0.94767	-44
0.95133	-53
0.95500	-59
0.95867	-65
0.96233	-69
0.96600	-69
0.96967	-70
0.97333	-71
0.97700	-75
0.98067	-79
0.98433	-82
0.98800	-80
0.99167	-75
0.99533	-67
0.99900	-62
1.00267	-60
1.00633	-63
1.01000	-71
1.01367	-76
1.01733	-71
1.02100	-59
1.02467	-50
1.02833	-47
1.03200	-52
1.03567	-55
1.03933	-53
1.04300	-50
1.04667	-47
1.05033	-46
1.05400	-51
1.05767	-61
1.06133	-70
1.06500	-70
1.06867	-65
1.07233	-66
1.07600	-67
1.07967	-68
1.08333	-67
1.08700	-69
1.09067	-74
1.09433	-80
1.09800	-78
1.10167	-73
1.10533	-70
1.10900	-72
1.11267	-74
1.11633	-73
1.12000	-69
1.12367	-62
1.12733	-59
1.13100	-57
1.13467	-51
1.13833	-41
1.14200	-31
1.14567	-32
1.14933	-40
1.15300	-48
1.15667	-61
1.16033	-72
1.16400	-77
1.16767	-77
1.17133	-73
1.17500	-67
1.17867	-60
1.18233	-58
1.18600	-59
1.18967	-60
1.19333	-61
1.19700	-58
1.20067	-56
1.20433	-58
1.20800	-56
1.21167	-55
1.21533	-64
1.21900	-75
1.22267	-84
1.22633	-88
1.23000	-83
1.23367	-73
1.23733	-67
1.24100	-62
1.24467	-64
1.24833	-63
1.25200	-60
1.25567	-57
1.25933	-55
1.26300	-58
1.26667	-67
1.27033	-71
1.27400	-74
1.27767	-80
1.28133	-80
1.28500	-76
1.28867	-72
1.29233	-72
1.29600	-66
1.29967	-60
1.30333	-54
1.30700	-53
1.31067	-54
1.31433	-60
1.31800	-73
1.32167	-85
1.32533	-93
1.32900	-94
1.33267	-89
1.33633	-84
1.34000	-81
1.34367	-77
1.34733	-77
1.35100	-81
1.35467	-87
1.35833	-93
1.36200	-96
1.36567	-93
1.36933	-82
1.37300	-71
1.37667	-71
1.38033	-80
1.38400	-90
1.38767	-99
1.39133	-107
1.39500	-111
1.39867	-114
1.40233	-116
1.40600	-113
1.40967	-108
1.41333	-105
1.41700	-103
1.42067	-104
1.42433	-91
1.42800	-81
1.43167	-82
1.43533	-81
1.43900	-69
1.44267	-39
1.44633	118
1.45000	546
1.45367	1004
1.45733	1242
1.46100	1238
1.46467	1060
1.46833	802
1.47200	536
1.47567	306
1.47933	118
1.48300	-50
1.48667	-205
1.49033	-346
1.49400	-469
1.49767	-583
1.50133	-659
1.50500	-721
1.50867	-771
1.51233	-807
1.51600	-833
1.51967	-853
1.52333	-860
1.52700	-847
1.53067	-820
1.53433	-786
1.53800	-721
1.54167	-505
1.54533	136
1.54900	1447
1.55267	3336
1.55633	5411
1.56000	7280
1.56367	8726
1.56733	9634
1.57100	9889
1.57467	9365
1.57833	8135
1.58200	6503
1.58567	4831
1.58933	3361
1.59300	2196
1.59667	1332
1.60033	735
1.60400	335
1.60767	68
1.61133	-103
1.61500	-209
1.61867	-279
1.62233	-319
1.62600	-342
1.62967	-353
1.63333	-359
1.63700	-368
1.64067	-377
1.64433	-383
1.64800	-382
1.65167	-380
1.65533	-374
1.65900	-369
1.66267	-362
1.66633	-354
1.67000	-343
1.67367	-334
1.67733	-328
1.68100	-324
1.68467	-326
1.68833	-334
1.69200	-340
1.69567	-344
1.69933	-351
1.70300	-359
1.70667	-362
1.71033	-360
1.71400	-357
1.71767	-353
1.72133	-351
1.72500	-349
1.72867	-345
1.73233	-340
1.73600	-335
1.73967	-327
1.74333	-318
1.74700	-311
1.75067	-306
1.75433	-303
1.75800	-307
1.76167	-319
1.76533	-322
1.76900	-319
1.77267	-310
1.77633	-302
1.78000	-300
1.78367	-299
1.78733	-297
1.79100	-298
1.79467	-296
1.79833	-290
1.80200	-287
1.80567	-287
1.80933	-288
1.81300	-291
1.81667	-296
1.82033	-300
1.82400	-296
1.82767	-291
1.83133	-286
1.83500	-282
1.83867	-282
1.84233	-285
1.84600	-288
1.84967	-289
1.85333	-293
1.85700	-302
1.86067	-305
1.86433	-305
1.86800	-305
1.87167	-305
1.87533	-305
1.87900	-302
1.88267	-300
1.88633	-300
1.89000	-288
1.89367	-274
1.89733	-267
1.90100	-271
1.90467	-280
1.90833	-288
1.91200	-291
1.91567	-290
1.91933	-289
1.92300	-290
1.92667	-285
1.93033	-277
1.93400	-272
1.93767	-271
1.94133	-271
1.94500	-273
1.94867	-277
1.95233	-268
1.95600	-205
1.95967	191
1.96333	2270
1.96700	10667
1.97067	36592
1.97433	98324
1.97800	212214
1.98167	377271
1.98533	570540
1.98900	757910
1.99267	907743
1.99633	997916
2.00000	1017268
2.00367	966456
2.00733	858545
2.01100	716077
2.01467	564376
2.01833	424057
2.02200	306865
2.02567	216084
2.02933	149483
2.03300	102464
2.03667	70128
2.04033	48247
2.04400	33576
2.04767	23755
2.05133	17155
2.05500	12685
2.05867	9619
2.06233	7483
2.06600	5961
2.06967	4853
2.07333	4030
2.07700	3407
2.08067	2924
2.08433	2537
2.08800	2225
2.09167	1971
2.09533	1764
2.09900	1592
2.10267	1446
2.10633	1319
2.11000	1209
2.11367	1115
2.11733	1031
2.12100	952
2.12467	885
2.12833	825
2.13200	769
2.13567	720
2.13933	672
2.14300	628
2.14667	584
2.15033	541
2.15400	506
2.15767	478
2.16133	449
2.16500	421
2.16867	395
2.17233	377
2.17600	360
2.17967	341
2.18333	321
2.18700	304
2.19067	292
2.19433	278
2.19800	268
2.20167	257
2.20533	246
2.20900	235
2.21267	223
2.21633	209
2.22000	194
2.22367	181
2.22733	167
2.23100	156
2.23467	150
2.23833	140
2.24200	126
2.24567	124
2.24933	120
2.25300	111
2.25667	106
2.26033	105
2.26400	101
2.26767	92
2.27133	78
2.27500	67
2.27867	59
2.28233	55
2.28600	53
2.28967	53
2.29333	51
2.29700	45
2.30067	38
2.30433	33
2.30800	36
2.31167	42
2.31533	44
2.31900	38
2.32267	29
2.32633	14
2.33000	6
2.33367	1
2.33733	3
2.34100	9
2.34467	15
2.34833	17
2.35200	13
2.35567	5
2.35933	-11
2.36300	-21
2.36667	-19
2.37033	-9
2.37400	-14
2.37767	-20
2.38133	-17
2.38500	-12
2.38867	-10
2.39233	-9
2.39600	-12
2.39967	-18
2.40333	-23
2.40700	-29
2.41067	-34
2.41433	-32
2.41800	-23
2.42167	-17
2.42533	-22
2.42900	-25
2.43267	-31
2.43633	-27
2.44000	-25
2.44367	-24
2.44733	-24
2.45100	-24
2.45467	-25
2.45833	-23
2.46200	-20
2.46567	-19
2.46933	-27
2.47300	-40
2.47667	-54
2.48033	-63
2.48400	-65
2.48767	-63
2.49133	-56
2.49500	-47
2.49867	-40
2.50233	-36
2.50600	-34
2.50967	-37
2.51333	-47
2.51700	-62
2.52067	-73
2.52433	-76
2.52800	-78
2.53167	-78
2.53533	-80
2.53900	-81
2.54267	-78
2.54633	-74
2.55000	-73
2.55367	-75
2.55733	-75
2.56100	-71
2.56467	-67
2.56833	-67
2.57200	-73
2.57567	-79
2.57933	-73
2.58300	-64
2.58667	-52
2.59033	-48
2.59400	-53
2.59767	-56
2.60133	-60
2.60500	-62
2.60867	-60
2.61233	-59
2.61600	-61
2.61967	-67
2.62333	-66
2.62700	-65
2.63067	-65
2.63433	-72
2.63800	-83
2.64167	-90
2.64533	-90
2.64900	-84
2.65267	-80
2.65633	-82
2.66000	-83
2.66367	-79
2.66733	-76
2.67100	-75
2.67467	-65
2.67833	-58
2.68200	-55
2.68567	-51
2.68933	-46
2.69300	-44
2.69667	-43
2.70033	-45
2.70400	-46
2.70767	-44
2.71133	-42
2.71500	-40
2.71867	-38
2.72233	-38
2.72600	-42
2.72967	-53
2.73333	-62
2.73700	-69
2.74067	-72
2.74433	-75
2.74800	-76
2.75167	-71
2.75533	-64
2.75900	-68
2.76267	-71
2.76633	-72
2.77000	-70
2.77367	-64
2.77733	-54
2.78100	-43
2.78467	-36
2.78833	-33
2.79200	-34
2.79567	-32
2.79933	-31
2.80300	-28
2.80667	-21
2.81033	-15
2.81400	-5
2.81767	-11
2.82133	-17
2.82500	-19
2.82867	-14
2.83233	-0
2.83600	11
2.83967	21
2.84333	24
2.84700	22
2.85067	17
2.85433	15
2.85800	12
2.86167	8
2.86533	4
2.86900	7
2.87267	8
2.87633	5
2.88000	4
2.88367	1
2.88733	-0
2.89100	0
2.89467	5
2.89833	11
2.90200	11
2.90567	12
2.90933	12
2.91300	9
2.91667	3
2.92033	2
2.92400	-4
2.92767	-12
2.93133	-15
2.93500	-16
2.93867	-11
2.94233	-3
2.94600	1
2.94967	6
2.95333	6
2.95700	3
2.96067	6
2.96433	9
2.96800	9
2.97167	9
2.97533	8
2.97900	8
2.98267	7
2.98633	10
2.99000	10
2.99367	6
2.99733	2
3.00100	4
3.00467	8
3.00833	2
3.01200	1
3.01567	7
3.01933	9
3.02300	11
3.02667	10
3.03033	4
3.03400	0
3.03767	-2
3.04133	2
3.04500	8
3.04867	10
3.05233	9
3.05600	10
3.05967	9
3.06333	8
3.06700	14
3.07067	20
3.07433	24
3.07800	27
3.08167	31
3.08533	33
3.08900	29
3.09267	23
3.09633	13
3.10000	1
3.10367	-10
3.10733	-19
3.11100	-20
3.11467	-15
3.11833	-13
3.12200	-15
3.12567	-15
3.12933	-19
3.13300	-17
3.13667	-15
3.14033	-14
3.14400	-13
3.14767	-11
3.15133	-10
3.15500	-8
3.15867	-2
3.16233	1
3.16600	2
3.16967	6
3.17333	6
3.17700	-0
3.18067	-6
3.18433	-12
3.18800	-16
3.19167	-19
3.19533	-25
3.19900	-33
3.20267	-35
3.20633	-28
3.21000	-25
3.21367	-27
3.21733	-30
3.22100	-27
3.22467	-21
3.22833	-15
3.23200	-6
3.23567	4
3.23933	7
3.24300	6
3.24667	2
3.25033	-4
3.25400	-9
3.25767	-13
3.26133	-16
3.26500	-17
3.26867	-22
3.27233	-24
3.27600	-18
3.27967	-12
3.28333	-15
3.28700	-24
3.29067	-32
3.29433	-29
3.29800	-21
3.30167	-14
3.30533	-9
3.30900	-3
3.31267	-1
3.31633	-4
3.32000	-6
3.32367	-5
3.32733	-6
3.33100	-13
3.33467	-19
3.33833	-24
3.34200	-25
3.34567	-23
3.34933	-22
3.35300	-25
3.35667	-25
3.36033	-22
3.36400	-15
3.36767	-12
3.37133	-14
3.37500	-21
3.37867	-29
3.38233	-36
3.38600	-43
3.38967	-49
3.39333	-50
3.39700	-48
3.40067	-47
3.40433	-47
3.40800	-44
3.41167	-37
3.41533	-33
3.41900	-30
3.42267	-35
3.42633	-39
3.43000	-44
3.43367	-45
3.43733	-44
3.44100	-39
3.44467	-33
3.44833	-27
3.45200	-27
3.45567	-26
3.45933	-27
3.46300	-37
3.46667	-50
3.47033	-55
3.47400	-64
3.47767	-73
3.48133	-74
3.48500	-70
3.48867	-69
3.49233	-64
3.49600	-58
3.49967	-45
3.50333	-32
3.50700	-23
3.51067	-22
3.51433	-21
3.51800	-25
3.52167	-27
3.52533	-27
3.52900	-27
3.53267	-30
3.53633	-26
3.54000	-25
3.54367	-30
3.54733	-45
3.55100	-61
3.55467	-61
3.55833	-53
3.56200	-46
3.56567	-42
3.56933	-37
3.57300	-26
3.57667	-21
3.58033	-29
3.58400	-41
3.58767	-51
3.59133	-46
3.59500	-43
3.59867	-42
3.60233	-39
3.60600	-43
3.60967	-52
3.61333	-59
3.61700	-59
3.62067	-58
3.62433	-61
3.62800	-63
3.63167	-60
3.63533	-56
3.63900	-55
3.64267	-53
3.64633	-53
3.65000	-51
3.65367	-52
3.65733	-52
3.66100	-51
3.66467	-52
3.66833	-50
3.67200	-53
3.67567	-64
3.67933	-77
3.68300	-84
3.68667	-88
3.69033	-92
3.69400	-88
3.69767	-79
3.70133	-69
3.70500	-67
3.70867	-62
3.71233	-53
3.71600	-42
3.71967	-35
3.72333	-25
3.72700	-17
3.73067	-20
3.73433	-33
3.73800	-50
3.74167	-68
3.74533	-82
3.74900	-98
3.75267	-107
3.75633	-104
3.76000	-95
3.76367	-93
3.76733	-92
3.77100	-93
3.77467	-94
3.77833	-91
3.78200	-90
3.78567	-87
3.78933	-86
3.79300	-84
3.79667	-75
3.80033	-65
3.80400	-62
3.80767	-69
3.81133	-79
3.81500	-82
3.81867	-77
3.82233	-70
3.82600	-65
3.82967	-62
3.83333	-61
3.83700	-63
3.84067	-66
3.84433	-68
3.84800	-69
3.85167	-70
3.85533	-75
3.85900	-77
3.86267	-68
3.86633	-56
3.87000	-54
3.87367	-56
3.87733	-53
3.88100	-51
3.88467	-56
3.88833	-63
3.89200	-69
3.89567	-78
3.89933	-86
3.90300	-93
3.90667	-89
3.91033	-78
3.91400	-76
3.91767	-78
3.92133	-78
3.92500	-73
3.92867	-64
3.93233	-58
3.93600	-51
3.93967	-51
3.94333	-55
3.94700	-61
3.95067	-70
3.95433	-73
3.95800	-73
3.96167	-69
3.96533	-64
3.96900	-71
3.97267	-86
3.97633	-96
3.98000	-101
3.98367	-102
3.98733	-102
3.99100	-102
3.99467	-98
3.99833	-90

[Chromatogram (Ch2)]
Interval(msec)	220
# of Points	1091
Start Time(min)	0.002
End Time(min)	3.998
R.Time (min)	Intensity
0.00167	-1
0.00533	-1
0.00900	-1
0.01267	-1
0.01633	-2
0.02000	-2
0.02367	-2
0.02733	-2
0.03100	-2
0.03467	-2
0.03833	-2
0.04200	-2
0.04567	-2
0.04933	-1
0.05300	-1
0.05667	-1
0.06033	-0
0.06400	-0
0.06767	0
0.07133	1
0.07500	1
0.07867	1
0.08233	2
0.08600	2
0.08967	2
0.09333	2
0.09700	3
0.10067	3
0.10433	3
0.10800	3
0.11167	3
0.11533	4
0.11900	4
0.12267	4
0.12633	4
0.13000	4
0.13367	4
0.13733	4
0.14100	4
0.14467	4
0.14833	4
0.15200	4
0.15567	3
0.15933	3
0.16300	3
0.16667	3
0.17033	2
0.17400	2
0.17767	2
0.18133	1
0.18500	1
0.18867	1
0.19233	1
0.19600	1
0.19967	1
0.20333	2
0.20700	2
0.21067	2
0.21433	2
0.21800	2
0.22167	2
0.22533	2
0.22900	2
0.23267	2
0.23633	2
0.24000	2
0.24367	2
0.24733	1
0.25100	1
0.25467	1
0.25833	0
0.26200	-0
0.26567	-1
0.26933	-1
0.27300	-2
0.27667	-2
0.28033	-2
0.28400	-2
0.28767	-2
0.29133	-2
0.29500	-1
0.29867	-1
0.30233	-0
0.30600	0
0.30967	0
0.31333	1
0.31700	1
0.32067	1
0.32433	2
0.32800	2
0.33167	2
0.33533	2
0.33900	2
0.34267	2
0.34633	2
0.35000	2
0.35367	2
0.35733	2
0.36100	1
0.36467	1
0.36833	1
0.37200	1
0.37567	0
0.37933	-0
0.38300	-0
0.38667	-0
0.39033	-0
0.39400	-0
0.39767	0
0.40133	0
0.40500	1
0.40867	1
0.41233	1
0.41600	1
0.41967	1
0.42333	1
0.42700	0
0.43067	1
0.43433	1
0.43800	1
0.44167	1
0.44533	1
0.44900	1
0.45267	0
0.45633	0
0.46000	0
0.46367	-0
0.46733	-0
0.47100	-1
0.47467	-1
0.47833	-1
0.48200	-2
0.48567	-2
0.48933	-3
0.49300	-3
0.49667	-4
0.50033	-4
0.50400	-4
0.50767	-5
0.51133	-4
0.51500	-4
0.51867	-4
0.52233	-4
0.52600	-3
0.52967	-3
0.53333	-2
0.53700	-2
0.54067	-1
0.54433	-1
0.54800	-0
0.55167	0
0.55533	0
0.55900	1
0.56267	1
0.56633	1
0.57000	1
0.57367	1
0.57733	1
0.58100	1
0.58467	1
0.58833	1
0.59200	2
0.59567	2
0.59933	2
0.60300	2
0.60667	3
0.61033	3
0.61400	3
0.61767	3
0.62133	3
0.62500	3
0.62867	3
0.63233	2
0.63600	2
0.63967	2
0.64333	2
0.64700	1
0.65067	1
0.65433	1
0.65800	1
0.66167	1
0.66533	1
0.66900	1
0.67267	1
0.67633	1
0.68000	1
0.68367	1
0.68733	0
0.69100	0
0.69467	0
0.69833	0
0.70200	0
0.70567	0
0.70933	0
0.71300	0
0.71667	0
0.72033	-0
0.72400	-0
0.72767	-0
0.73133	-1
0.73500	-1
0.73867	-1
0.74233	-1
0.74600	-1
0.74967	-0
0.75333	-0
0.75700	-0
0.76067	-1
0.76433	-1
0.76800	-1
0.77167	-1
0.77533	-1
0.77900	-1
0.78267	-1
0.78633	-1
0.79000	-1
0.79367	-1
0.79733	-1
0.80100	-1
0.80467	-2
0.80833	-2
0.81200	-2
0.81567	-3
0.81933	-3
0.82300	-3
0.82667	-3
0.83033	-3
0.83400	-3
0.83767	-3
0.84133	-2
0.84500	-2
0.84867	-2
0.85233	-1
0.85600	-1
0.85967	-1
0.86333	-0
0.86700	-0
0.87067	-0
0.87433	0
0.87800	0
0.88167	0
0.88533	0
0.88900	0
0.89267	0
0.89633	0
0.90000	0
0.90367	0
0.90733	0
0.91100	0
0.91467	0
0.91833	0
0.92200	1
0.92567	1
0.92933	1
0.93300	1
0.93667	1
0.94033	0
0.94400	0
0.94767	-0
0.95133	-0
0.95500	-1
0.95867	-1
0.96233	-1
0.96600	-1
0.96967	-1
0.97333	-1
0.97700	-2
0.98067	-2
0.98433	-2
0.98800	-2
0.99167	-2
0.99533	-2
0.99900	-2
1.00267	-2
1.00633	-2
1.01000	-2
1.01367	-2
1.01733	-2
1.02100	-2
1.02467	-2
1.02833	-2
1.03200	-2
1.03567	-2
1.03933	-2
1.04300	-2
1.04667	-2
1.05033	-2
1.05400	-2
1.05767	-1
1.06133	-1
1.06500	-1
1.06867	-1
1.07233	-0
1.07600	0
1.07967	0
1.08333	1
1.08700	1
1.09067	1
1.09433	1
1.09800	1
1.10167	2
1.10533	2
1.10900	2
1.11267	2
1.11633	2
1.12000	2
1.12367	2
1.12733	2
1.13100	2
1.13467	2
1.13833	2
1.14200	1
1.14567	1
1.14933	1
1.15300	0
1.15667	0
1.16033	-0
1.16400	-0
1.16767	-0
1.17133	-1
1.17500	-1
1.17867	-1
1.18233	-1
1.18600	-2
1.18967	-2
1.19333	-3
1.19700	-3
1.20067	-3
1.20433	-3
1.20800	-4
1.21167	-4
1.21533	-4
1.21900	-5
1.22267	-4
1.22633	-4
1.23000	-4
1.23367	-4
1.23733	-3
1.24100	-3
1.24467	-3
1.24833	-3
1.25200	-3
1.25567	-3
1.25933	-2
1.26300	-2
1.26667	-2
1.27033	-2
1.27400	-2
1.27767	-2
1.28133	-1
1.28500	-1
1.28867	-1
1.29233	-1
1.29600	-0
1.29967	-0
1.30333	-0
1.30700	-0
1.31067	-0
1.31433	-0
1.31800	-0
1.32167	-0
1.32533	-0
1.32900	-1
1.33267	-1
1.33633	-1
1.34000	-1
1.34367	-1
1.34733	-1
1.35100	-2
1.35467	-2
1.35833	-2
1.36200	-2
1.36567	-2
1.36933	-2
1.37300	-2
1.37667	-3
1.38033	-3
1.38400	-3
1.38767	-3
1.39133	-3
1.39500	-2
1.39867	-2
1.40233	-2
1.40600	-2
1.40967	-2
1.41333	-2
1.41700	-2
1.42067	-2
1.42433	-2
1.42800	-1
1.43167	-1
1.43533	-1
1.43900	-1
1.44267	-1
1.44633	-1
1.45000	-1
1.45367	-1
1.45733	-1
1.46100	-2
1.46467	-2
1.46833	-2
1.47200	-2
1.47567	-2
1.47933	-2
1.48300	-2
1.48667	-3
1.49033	-3
1.49400	-3
1.49767	-3
1.50133	-2
1.50500	-2
1.50867	-2
1.51233	-2
1.51600	-1
1.51967	-1
1.52333	-1
1.52700	-1
1.53067	-0
1.53433	-0
1.53800	0
1.54167	0
1.54533	0
1.54900	0
1.55267	-0
1.55633	-0
1.56000	-0
1.56367	-0
1.56733	-0
1.57100	-0
1.57467	-0
1.57833	-0
1.58200	-0
1.58567	-0
1.58933	-1
1.59300	-1
1.59667	-2
1.60033	-3
1.60400	-4
1.60767	-5
1.61133	-7
1.61500	-9
1.61867	-12
1.62233	-14
1.62600	-17
1.62967	-20
1.63333	-24
1.63700	-27
1.64067	-30
1.64433	-34
1.64800	-38
1.65167	-41
1.65533	-45
1.65900	-49
1.66267	-52
1.66633	-56
1.67000	-60
1.67367	-64
1.67733	-69
1.68100	-74
1.68467	-78
1.68833	-83
1.69200	-87
1.69567	-90
1.69933	-93
1.70300	-96
1.70667	-98
1.71033	-99
1.71400	-101
1.71767	-102
1.72133	-103
1.72500	-105
1.72867	-106
1.73233	-107
1.73600	-108
1.73967	-109
1.74333	-110
1.74700	-110
1.75067	-110
1.75433	-110
1.75800	-111
1.76167	-111
1.76533	-111
1.76900	-111
1.77267	-111
1.77633	-112
1.78000	-112
1.78367	-112
1.78733	-112
1.79100	-112
1.79467	-112
1.79833	-112
1.80200	-113
1.80567	-113
1.80933	-113
1.81300	-113
1.81667	-113
1.82033	-113
1.82400	-113
1.82767	-113
1.83133	-113
1.83500	-113
1.83867	-113
1.84233	-112
1.84600	-112
1.84967	-112
1.85333	-112
1.85700	-113
1.86067	-113
1.86433	-114
1.86800	-114
1.87167	-114
1.87533	-113
1.87900	-113
1.88267	-112
1.88633	-111
1.89000	-110
1.89367	-110
1.89733	-109
1.90100	-109
1.90467	-110
1.90833	-111
1.91200	-111
1.91567	-111
1.91933	-111
1.92300	-111
1.92667	-111
1.93033	-111
1.93400	-111
1.93767	-110
1.94133	-110
1.94500	-109
1.94867	-109
1.95233	-109
1.95600	-109
1.95967	-109
1.96333	-109
1.96700	-109
1.97067	-109
1.97433	-109
1.97800	-108
1.98167	-108
1.98533	-108
1.98900	-108
1.99267	-108
1.99633	-108
2.00000	-108
2.00367	-108
2.00733	-108
2.01100	-108
2.01467	-108
2.01833	-107
2.02200	-107
2.02567	-107
2.02933	-106
2.03300	-105
2.03667	-105
2.04033	-104
2.04400	-104
2.04767	-104
2.05133	-104
2.05500	-104
2.05867	-104
2.06233	-104
2.06600	-104
2.06967	-104
2.07333	-103
2.07700	-103
2.08067	-101
2.08433	-100
2.08800	-99
2.09167	-99
2.09533	-98
2.09900	-98
2.10267	-97
2.10633	-97
2.11000	-97
2.11367	-96
2.11733	-96
2.12100	-95
2.12467	-95
2.12833	-95
2.13200	-94
2.13567	-94
2.13933	-93
2.14300	-93
2.14667	-93
2.15033	-93
2.15400	-93
2.15767	-93
2.16133	-93
2.16500	-93
2.16867	-92
2.17233	-92
2.17600	-91
2.17967	-91
2.18333	-90
2.18700	-90
2.19067	-90
2.19433	-91
2.19800	-91
2.20167	-92
2.20533	-91
2.20900	-91
2.21267	-90
2.21633	-90
2.22000	-89
2.22367	-89
2.22733	-88
2.23100	-87
2.23467	-87
2.23833	-86
2.24200	-85
2.24567	-85
2.24933	-84
2.25300	-84
2.25667	-84
2.26033	-84
2.26400	-84
2.26767	-83
2.27133	-83
2.27500	-84
2.27867	-84
2.28233	-85
2.28600	-85
2.28967	-85
2.29333	-85
2.29700	-85
2.30067	-84
2.30433	-83
2.30800	-83
2.31167	-82
2.31533	-82
2.31900	-81
2.32267	-81
2.32633	-80
2.33000	-80
2.33367	-80
2.33733	-79
2.34100	-79
2.34467	-78
2.34833	-78
2.35200	-77
2.35567	-76
2.35933	-75
2.36300	-74
2.36667	-72
2.37033	-70
2.37400	-68
2.37767	-65
2.38133	-61
2.38500	-57
2.38867	-53
2.39233	-49
2.39600	-44
2.39967	-39
2.40333	-35
2.40700	-30
2.41067	-26
2.41433	-22
2.41800	-18
2.42167	-16
2.42533	-13
2.42900	-11
2.43267	-9
2.43633	-8
2.44000	-7
2.44367	-7
2.44733	-6
2.45100	-6
2.45467	-6
2.45833	-6
2.46200	-5
2.46567	-4
2.46933	-3
2.47300	-2
2.47667	-1
2.48033	0
2.48400	1
2.48767	2
2.49133	3
2.49500	4
2.49867	5
2.50233	6
2.50600	7
2.50967	8
2.51333	9
2.51700	9
2.52067	10
2.52433	10
2.52800	10
2.53167	10
2.53533	10
2.53900	11
2.54267	11
2.54633	11
2.55000	12
2.55367	13
2.55733	13
2.56100	14
2.56467	14
2.56833	14
2.57200	14
2.57567	14
2.57933	14
2.58300	14
2.58667	15
2.59033	15
2.59400	16
2.59767	16
2.60133	17
2.60500	17
2.60867	17
2.61233	17
2.61600	18
2.61967	18
2.62333	18
2.62700	18
2.63067	19
2.63433	19
2.63800	19
2.64167	20
2.64533	20
2.64900	20
2.65267	20
2.65633	20
2.66000	20
2.66367	20
2.66733	20
2.67100	21
2.67467	21
2.67833	22
2.68200	22
2.68567	23
2.68933	23
2.69300	23
2.69667	23
2.70033	23
2.70400	22
2.70767	22
2.71133	22
2.71500	22
2.71867	21
2.72233	21
2.72600	22
2.72967	22
2.73333	22
2.73700	22
2.74067	23
2.74433	23
2.74800	23
2.75167	24
2.75533	24
2.75900	24
2.76267	24
2.76633	24
2.77000	24
2.77367	24
2.77733	24
2.78100	24
2.78467	24
2.78833	24
2.79200	24
2.79567	24
2.79933	24
2.80300	24
2.80667	24
2.81033	24
2.81400	24
2.81767	24
2.82133	24
2.82500	24
2.82867	25
2.83233	25
2.83600	25
2.83967	24
2.84333	22
2.84700	19
2.85067	14
2.85433	6
2.85800	-5
2.86167	-21
2.86533	-41
2.86900	-66
2.87267	-97
2.87633	-134
2.88000	-177
2.88367	-225
2.88733	-278
2.89100	-336
2.89467	-400
2.89833	-467
2.90200	-539
2.90567	-614
2.90933	-693
2.91300	-775
2.91667	-859
2.92033	-946
2.92400	-1036
2.92767	-1127
2.93133	-1220
2.93500	-1315
2.93867	-1408
2.94233	-1490
2.94600	-1546
2.94967	-1568
2.95333	-1553
2.95700	-1503
2.96067	-1425
2.96433	-1328
2.96800	-1220
2.97167	-1106
2.97533	-993
2.97900	-883
2.98267	-780
2.98633	-684
2.99000	-598
2.99367	-519
2.99733	-450
3.00100	-388
3.00467	-334
3.00833	-286
3.01200	-245
3.01567	-210
3.01933	-179
3.02300	-152
3.02667	-129
3.03033	-109
3.03400	-92
3.03767	-77
3.04133	-65
3.04500	-54
3.04867	-45
3.05233	-37
3.05600	-31
3.05967	-25
3.06333	-20
3.06700	-16
3.07067	-12
3.07433	-9
3.07800	-6
3.08167	-4
3.08533	-2
3.08900	-0
3.09267	2
3.09633	3
3.10000	4
3.10367	5
3.10733	6
3.11100	7
3.11467	7
3.11833	8
3.12200	9
3.12567	9
3.12933	10
3.13300	10
3.13667	10
3.14033	11
3.14400	11
3.14767	11
3.15133	12
3.15500	12
3.15867	12
3.16233	13
3.16600	13
3.16967	14
3.17333	14
3.17700	14
3.18067	15
3.18433	15
3.18800	16
3.19167	16
3.19533	17
3.19900	17
3.20267	17
3.20633	17
3.21000	18
3.21367	18
3.21733	18
3.22100	19
3.22467	19
3.22833	19
3.23200	19
3.23567	19
3.23933	20
3.24300	20
3.24667	20
3.25033	20
3.25400	20
3.25767	20
3.26133	20
3.26500	21
3.26867	21
3.27233	21
3.27600	21
3.27967	21
3.28333	21
3.28700	20
3.29067	20
3.29433	20
3.29800	20
3.30167	20
3.30533	20
3.30900	20
3.31267	21
3.31633	21
3.32000	22
3.32367	22
3.32733	23
3.33100	23
3.33467	24
3.33833	24
3.34200	24
3.34567	24
3.34933	24
3.35300	24
3.35667	24
3.36033	24
3.36400	24
3.36767	24
3.37133	24
3.37500	24
3.37867	24
3.38233	25
3.38600	25
3.38967	25
3.39333	24
3.39700	24
3.40067	24
3.40433	24
3.40800	24
3.41167	25
3.41533	25
3.41900	25
3.42267	24
3.42633	24
3.43000	24
3.43367	24
3.43733	24
3.44100	25
3.44467	25
3.44833	25
3.45200	24
3.45567	24
3.45933	24
3.46300	24
3.46667	24
3.47033	23
3.47400	23
3.47767	23
3.48133	23
3.48500	23
3.48867	23
3.49233	23
3.49600	23
3.49967	23
3.50333	23
3.50700	24
3.51067	24
3.51433	24
3.51800	24
3.52167	25
3.52533	25
3.52900	25
3.53267	25
3.53633	25
3.54000	25
3.54367	25
3.54733	25
3.55100	25
3.55467	25
3.55833	25
3.56200	25
3.56567	25
3.56933	25
3.57300	25
3.57667	25
3.58033	25
3.58400	25
3.58767	25
3.59133	25
3.59500	25
3.59867	25
3.60233	25
3.60600	25
3.60967	24
3.61333	24
3.61700	25
3.62067	25
3.62433	24
3.62800	24
3.63167	24
3.63533	24
3.63900	24
3.64267	24
3.64633	24
3.65000	24
3.65367	24
3.65733	24
3.66100	24
3.66467	24
3.66833	24
3.67200	24
3.67567	25
3.67933	25
3.68300	25
3.68667	25
3.69033	25
3.69400	25
3.69767	25
3.70133	26
3.70500	26
3.70867	26
3.71233	26
3.71600	26
3.71967	26
3.72333	26
3.72700	26
3.73067	26
3.73433	25
3.73800	25
3.74167	25
3.74533	25
3.74900	25
3.75267	25
3.75633	25
3.76000	25
3.76367	25
3.76733	25
3.77100	25
3.77467	25
3.77833	25
3.78200	25
3.78567	25
3.78933	25
3.79300	25
3.79667	25
3.80033	24
3.80400	24
3.80767	23
3.81133	23
3.81500	23
3.81867	22
3.82233	22
3.82600	22
3.82967	22
3.83333	22
3.83700	22
3.84067	22
3.84433	22
3.84800	23
3.85167	23
3.85533	23
3.85900	23
3.86267	24
3.86633	24
3.87000	24
3.87367	25
3.87733	25
3.88100	25
3.88467	25
3.88833	25
3.89200	26
3.89567	26
3.89933	26
3.90300	26
3.90667	26
3.91033	26
3.91400	26
3.91767	26
3.92133	26
3.92500	26
3.92867	26
3.93233	26
3.93600	25
3.93967	25
3.94333	25
3.94700	25
3.95067	25
3.95433	26
3.95800	26
3.96167	26
3.96533	26
3.96900	26
3.97267	27
3.97633	27
3.98000	27
3.98367	27
3.98733	27
3.99100	26
3.99467	26
3.99833	26

[Chromatogram (Ch3)]
Interval(msec)	220
# of Points	1091
Start Time(min)	0.002
End Time(min)	3.998
R.Time (min)	Intensity
0.00167	1
0.00533	3
0.00900	3
0.01267	2
0.01633	2
0.02000	1
0.02367	-2
0.02733	-3
0.03100	-3
0.03467	-5
0.03833	-7
0.04200	-7
0.04567	-3
0.04933	-3
0.05300	-3
0.05667	-2
0.06033	-2
0.06400	-2
0.06767	-2
0.07133	-1
0.07500	0
0.07867	2
0.08233	3
0.08600	3
0.08967	4
0.09333	4
0.09700	4
0.10067	4
0.10433	3
0.10800	1
0.11167	-0
0.11533	-4
0.11900	-8
0.12267	-9
0.12633	-7
0.13000	-4
0.13367	-2
0.13733	-1
0.14100	0
0.14467	-2
0.14833	-4
0.15200	-6
0.15567	-7
0.15933	-5
0.16300	-4
0.16667	-5
0.17033	-8
0.17400	-9
0.17767	-9
0.18133	-9
0.18500	-7
0.18867	-5
0.19233	-6
0.19600	-7
0.19967	-7
0.20333	-7
0.20700	-7
0.21067	-7
0.21433	-7
0.21800	-6
0.22167	-6
0.22533	-5
0.22900	-5
0.23267	-5
0.23633	-5
0.24000	-4
0.24367	-4
0.24733	-5
0.25100	-6
0.25467	-7
0.25833	-9
0.26200	-12
0.26567	-14
0.26933	-16
0.27300	-17
0.27667	-16
0.28033	-13
0.28400	-9
0.28767	-8
0.29133	-5
0.29500	-3
0.29867	-2
0.30233	-3
0.30600	-4
0.30967	-5
0.31333	-4
0.31700	-3
0.32067	-3
0.32433	-6
0.32800	-8
0.33167	-9
0.33533	-8
0.33900	-8
0.34267	-8
0.34633	-7
0.35000	-5
0.35367	-6
0.35733	-9
0.36100	-9
0.36467	-6
0.36833	-6
0.37200	-6
0.37567	-7
0.37933	-5
0.38300	-4
0.38667	-5
0.39033	-7
0.39400	-9
0.39767	-8
0.40133	-6
0.40500	-5
0.40867	-5
0.41233	-4
0.41600	-3
0.41967	-4
0.42333	-5
0.42700	-5
0.43067	-3
0.43433	-2
0.43800	-2
0.44167	-2
0.44533	-5
0.44900	-7
0.45267	-6
0.45633	-7
0.46000	-9
0.46367	-10
0.46733	-9
0.47100	-8
0.47467	-9
0.47833	-8
0.48200	-8
0.48567	-9
0.48933	-10
0.49300	-9
0.49667	-9
0.50033	-10
0.50400	-9
0.50767	-9
0.51133	-8
0.51500	-4
0.51867	-2
0.52233	-4
0.52600	-5
0.52967	-4
0.53333	-3
0.53700	-4
0.54067	-3
0.54433	-3
0.54800	-3
0.55167	-0
0.55533	0
0.55900	-2
0.56267	-2
0.56633	-3
0.57000	-5
0.57367	-7
0.57733	-8
0.58100	-6
0.58467	-3
0.58833	-3
0.59200	-5
0.59567	-4
0.59933	-5
0.60300	-5
0.60667	-5
0.61033	-6
0.61400	-5
0.61767	-2
0.62133	-0
0.62500	0
0.62867	1
0.63233	2
0.63600	0
0.63967	-0
0.64333	-0
0.64700	-2
0.65067	-4
0.65433	-5
0.65800	-3
0.66167	0
0.66533	1
0.66900	-0
0.67267	-2
0.67633	-2
0.68000	-2
0.68367	-1
0.68733	-0
0.69100	-1
0.69467	-1
0.69833	-2
0.70200	-2
0.70567	-0
0.70933	2
0.71300	4
0.71667	5
0.72033	5
0.72400	4
0.72767	4
0.73133	3
0.73500	3
0.73867	4
0.74233	3
0.74600	3
0.74967	0
0.75333	-2
0.75700	-2
0.76067	-2
0.76433	-2
0.76800	-0
0.77167	1
0.77533	1
0.77900	1
0.78267	0
0.78633	-1
0.79000	-3
0.79367	-3
0.79733	-3
0.80100	-3
0.80467	-3
0.80833	-2
0.81200	-1
0.81567	2
0.81933	5
0.82300	5
0.82667	6
0.83033	8
0.83400	9
0.83767	8
0.84133	7
0.84500	5
0.84867	3
0.85233	4
0.85600	6
0.85967	4
0.86333	3
0.86700	4
0.87067	5
0.87433	6
0.87800	6
0.88167	5
0.88533	3
0.88900	3
0.89267	2
0.89633	2
0.90000	3
0.90367	3
0.90733	3
0.91100	5
0.91467	5
0.91833	4
0.92200	4
0.92567	6
0.92933	9
0.93300	7
0.93667	5
0.94033	5
0.94400	6
0.94767	8
0.95133	9
0.95500	9
0.95867	8
0.96233	8
0.96600	7
0.96967	7
0.97333	7
0.97700	5
0.98067	7
0.98433	8
0.98800	7
0.99167	7
0.99533	6
0.99900	6
1.00267	5
1.00633	8
1.01000	8
1.01367	9
1.01733	10
1.02100	11
1.02467	11
1.02833	10
1.03200	10
1.03567	9
1.03933	8
1.04300	6
1.04667	5
1.05033	5
1.05400	7
1.05767	9
1.06133	7
1.06500	6
1.06867	7
1.07233	9
1.07600	8
1.07967	7
1.08333	7
1.08700	7
1.09067	5
1.09433	5
1.09800	6
1.10167	6
1.10533	7
1.10900	6
1.11267	4
1.11633	2
1.12000	2
1.12367	5
1.12733	8
1.13100	8
1.13467	7
1.13833	5
1.14200	3
1.14567	2
1.14933	2
1.15300	0
1.15667	1
1.16033	3
1.16400	5
1.16767	5
1.17133	6
1.17500	6
1.17867	5
1.18233	4
1.18600	6
1.18967	8
1.19333	10
1.19700	12
1.20067	11
1.20433	9
1.20800	7
1.21167	6
1.21533	5
1.21900	6
1.22267	7
1.22633	6
1.23000	7
1.23367	5
1.23733	6
1.24100	9
1.24467	9
1.24833	8
1.25200	8
1.25567	7
1.25933	4
1.26300	2
1.26667	0
1.27033	0
1.27400	2
1.27767	5
1.28133	7
1.28500	9
1.28867	9
1.29233	11
1.29600	11
1.29967	9
1.30333	8
1.30700	7
1.31067	7
1.31433	6
1.31800	7
1.32167	7
1.32533	6
1.32900	8
1.33267	8
1.33633	8
1.34000	10
1.34367	12
1.34733	12
1.35100	12
1.35467	12
1.35833	13
1.36200	15
1.36567	15
1.36933	14
1.37300	13
1.37667	12
1.38033	13
1.38400	14
1.38767	14
1.39133	13
1.39500	11
1.39867	9
1.40233	9
1.40600	10
1.40967	11
1.41333	12
1.41700	13
1.42067	13
1.42433	11
1.42800	11
1.43167	11
1.43533	10
1.43900	10
1.44267	9
1.44633	8
1.45000	8
1.45367	7
1.45733	7
1.46100	7
1.46467	7
1.46833	7
1.47200	9
1.47567	11
1.47933	11
1.48300	12
1.48667	15
1.49033	14
1.49400	13
1.49767	11
1.50133	8
1.50500	5
1.50867	6
1.51233	7
1.51600	6
1.51967	6
1.52333	3
1.52700	2
1.53067	3
1.53433	4
1.53800	5
1.54167	7
1.54533	11
1.54900	13
1.55267	11
1.55633	8
1.56000	8
1.56367	10
1.56733	12
1.57100	12
1.57467	13
1.57833	11
1.58200	8
1.58567	5
1.58933	7
1.59300	10
1.59667	10
1.60033	11
1.60400	11
1.60767	10
1.61133	8
1.61500	9
1.61867	9
1.62233	11
1.62600	13
1.62967	14
1.63333	14
1.63700	15
1.64067	14
1.64433	15
1.64800	13
1.65167	13
1.65533	12
1.65900	13
1.66267	14
1.66633	14
1.67000	13
1.67367	14
1.67733	12
1.68100	10
1.68467	10
1.68833	12
1.69200	15
1.69567	17
1.69933	19
1.70300	21
1.70667	21
1.71033	20
1.71400	20
1.71767	20
1.72133	20
1.72500	20
1.72867	21
1.73233	20
1.73600	22
1.73967	23
1.74333	24
1.74700	25
1.75067	26
1.75433	27
1.75800	26
1.76167	23
1.76533	21
1.76900	21
1.77267	21
1.77633	21
1.78000	21
1.78367	23
1.78733	28
1.79100	31
1.79467	33
1.79833	33
1.80200	34
1.80567	34
1.80933	33
1.81300	33
1.81667	34
1.82033	33
1.82400	34
1.82767	34
1.83133	34
1.83500	35
1.83867	37
1.84233	38
1.84600	39
1.84967	40
1.85333	39
1.85700	40
1.86067	41
1.86433	42
1.86800	41
1.87167	43
1.87533	45
1.87900	45
1.88267	44
1.88633	44
1.89000	45
1.89367	45
1.89733	43
1.90100	45
1.90467	47
1.90833	48
1.91200	50
1.91567	51
1.91933	52
1.92300	53
1.92667	53
1.93033	56
1.93400	59
1.93767	60
1.94133	60
1.94500	60
1.94867	61
1.95233	61
1.95600	62
1.95967	64
1.96333	64
1.96700	62
1.97067	64
1.97433	67
1.97800	69
1.98167	69
1.98533	69
1.98900	68
1.99267	70
1.99633	71
2.00000	72
2.00367	71
2.00733	70
2.01100	69
2.01467	72
2.01833	76
2.02200	78
2.02567	79
2.02933	79
2.03300	80
2.03667	83
2.04033	85
2.04400	85
2.04767	86
2.05133	88
2.05500	90
2.05867	91
2.06233	92
2.06600	94
2.06967	94
2.07333	94
2.07700	94
2.08067	95
2.08433	95
2.08800	97
2.09167	99
2.09533	103
2.09900	107
2.10267	108
2.10633	107
2.11000	105
2.11367	104
2.11733	104
2.12100	104
2.12467	104
2.12833	106
2.13200	107
2.13567	108
2.13933	110
2.14300	112
2.14667	115
2.15033	118
2.15400	121
2.15767	123
2.16133	124
2.16500	123
2.16867	121
2.17233	120
2.17600	121
2.17967	125
2.18333	128
2.18700	129
2.19067	130
2.19433	132
2.19800	134
2.20167	134
2.20533	133
2.20900	135
2.21267	139
2.21633	141
2.22000	141
2.22367	142
2.22733	141
2.23100	141
2.23467	143
2.23833	146
2.24200	150
2.24567	152
2.24933	154
2.25300	154
2.25667	153
2.26033	152
2.26400	151
2.26767	153
2.27133	155
2.27500	157
2.27867	157
2.28233	157
2.28600	159
2.28967	159
2.29333	160
2.29700	161
2.30067	162
2.30433	163
2.30800	164
2.31167	165
2.31533	167
2.31900	170
2.32267	171
2.32633	172
2.33000	173
2.33367	175
2.33733	176
2.34100	178
2.34467	179
2.34833	180
2.35200	180
2.35567	180
2.35933	181
2.36300	181
2.36667	180
2.37033	178
2.37400	177
2.37767	178
2.38133	179
2.38500	177
2.38867	174
2.39233	175
2.39600	177
2.39967	179
2.40333	183
2.40700	187
2.41067	192
2.41433	195
2.41800	197
2.42167	199
2.42533	200
2.42900	200
2.43267	201
2.43633	200
2.44000	199
2.44367	233
2.44733	332
2.45100	445
2.45467	541
2.45833	590
2.46200	593
2.46567	576
2.46933	559
2.47300	548
2.47667	536
2.48033	516
2.48400	486
2.48767	451
2.49133	417
2.49500	387
2.49867	366
2.50233	352
2.50600	344
2.50967	345
2.51333	353
2.51700	366
2.52067	377
2.52433	384
2.52800	381
2.53167	370
2.53533	353
2.53900	333
2.54267	312
2.54633	291
2.55000	274
2.55367	262
2.55733	250
2.56100	240
2.56467	233
2.56833	229
2.57200	229
2.57567	230
2.57933	231
2.58300	232
2.58667	235
2.59033	237
2.59400	239
2.59767	242
2.60133	243
2.60500	242
2.60867	238
2.61233	232
2.61600	225
2.61967	216
2.62333	206
2.62700	196
2.63067	184
2.63433	170
2.63800	155
2.64167	140
2.64533	127
2.64900	116
2.65267	108
2.65633	100
2.66000	94
2.66367	90
2.66733	86
2.67100	85
2.67467	84
2.67833	84
2.68200	83
2.68567	82
2.68933	81
2.69300	83
2.69667	90
2.70033	97
2.70400	101
2.70767	103
2.71133	106
2.71500	110
2.71867	115
2.72233	117
2.72600	120
2.72967	123
2.73333	127
2.73700	133
2.74067	138
2.74433	142
2.74800	144
2.75167	145
2.75533	146
2.75900	147
2.76267	147
2.76633	147
2.77000	148
2.77367	151
2.77733	153
2.78100	155
2.78467	158
2.78833	160
2.79200	162
2.79567	166
2.79933	169
2.80300	172
2.80667	176
2.81033	179
2.81400	182
2.81767	190
2.82133	208
2.82500	249
2.82867	340
2.83233	522
2.83600	858
2.83967	1415
2.84333	2252
2.84700	3396
2.85067	4833
2.85433	6501
2.85800	8302
2.86167	10109
2.86533	11781
2.86900	13189
2.87267	14230
2.87633	14847
2.88000	15035
2.88367	14831
2.88733	14303
2.89100	13532
2.89467	12600
2.89833	11579
2.90200	10529
2.90567	9493
2.90933	8499
2.91300	7565
2.91667	6707
2.92033	5924
2.92400	5219
2.92767	4591
2.93133	4033
2.93500	3538
2.93867	3100
2.94233	2714
2.94600	2378
2.94967	2083
2.95333	1824
2.95700	1601
2.96067	1407
2.96433	1238
2.96800	1088
2.97167	962
2.97533	852
2.97900	757
2.98267	674
2.98633	602
2.99000	540
2.99367	488
2.99733	445
3.00100	407
3.00467	372
3.00833	343
3.01200	319
3.01567	296
3.01933	277
3.02300	262
3.02667	247
3.03033	233
3.03400	221
3.03767	213
3.04133	208
3.04500	203
3.04867	199
3.05233	195
3.05600	192
3.05967	188
3.06333	185
3.06700	183
3.07067	180
3.07433	179
3.07800	177
3.08167	174
3.08533	172
3.08900	171
3.09267	172
3.09633	171
3.10000	171
3.10367	169
3.10733	168
3.11100	168
3.11467	168
3.11833	169
3.12200	170
3.12567	170
3.12933	168
3.13300	168
3.13667	170
3.14033	170
3.14400	171
3.14767	172
3.15133	173
3.15500	172
3.15867	169
3.16233	170
3.16600	171
3.16967	172
3.17333	173
3.17700	176
3.18067	179
3.18433	180
3.18800	180
3.19167	181
3.19533	182
3.19900	182
3.20267	184
3.20633	185
3.21000	184
3.21367	184
3.21733	183
3.22100	183
3.22467	184
3.22833	187
3.23200	189
3.23567	188
3.23933	185
3.24300	185
3.24667	186
3.25033	189
3.25400	191
3.25767	192
3.26133	193
3.26500	195
3.26867	197
3.27233	199
3.27600	202
3.27967	204
3.28333	206
3.28700	209
3.29067	209
3.29433	210
3.29800	211
3.30167	212
3.30533	213
3.30900	215
3.31267	216
3.31633	218
3.32000	217
3.32367	217
3.32733	218
3.33100	220
3.33467	221
3.33833	223
3.34200	225
3.34567	225
3.34933	223
3.35300	224
3.35667	228
3.36033	229
3.36400	231
3.36767	235
3.37133	238
3.37500	240
3.37867	240
3.38233	242
3.38600	244
3.38967	245
3.39333	245
3.39700	244
3.40067	244
3.40433	246
3.40800	246
3.41167	246
3.41533	247
3.41900	248
3.42267	247
3.42633	246
3.43000	247
3.43367	249
3.43733	253
3.44100	254
3.44467	254
3.44833	253
3.45200	252
3.45567	253
3.45933	254
3.46300	254
3.46667	256
3.47033	256
3.47400	257
3.47767	259
3.48133	258
3.48500	258
3.48867	259
3.49233	260
3.49600	262
3.49967	261
3.50333	260
3.50700	261
3.51067	261
3.51433	263
3.51800	263
3.52167	261
3.52533	258
3.52900	256
3.53267	255
3.53633	256
3.54000	256
3.54367	256
3.54733	258
3.55100	258
3.55467	256
3.55833	252
3.56200	252
3.56567	253
3.56933	256
3.57300	257
3.57667	257
3.58033	257
3.58400	255
3.58767	253
3.59133	251
3.59500	251
3.59867	250
3.60233	249
3.60600	249
3.60967	250
3.61333	252
3.61700	253
3.62067	252
3.62433	252
3.62800	253
3.63167	253
3.63533	254
3.63900	254
3.64267	254
3.64633	256
3.65000	258
3.65367	258
3.65733	257
3.66100	257
3.66467	256
3.66833	252
3.67200	251
3.67567	249
3.67933	249
3.68300	252
3.68667	252
3.69033	252
3.69400	253
3.69767	253
3.70133	254
3.70500	253
3.70867	253
3.71233	254
3.71600	251
3.71967	252
3.72333	254
3.72700	256
3.73067	257
3.73433	257
3.73800	255
3.74167	254
3.74533	255
3.74900	255
3.75267	254
3.75633	253
3.76000	252
3.76367	252
3.76733	253
3.77100	255
3.77467	255
3.77833	254
3.78200	255
3.78567	256
3.78933	254
3.79300	253
3.79667	250
3.80033	250
3.80400	252
3.80767	253
3.81133	254
3.81500	254
3.81867	253
3.82233	252
3.82600	247
3.82967	241
3.83333	238
3.83700	237
3.84067	238
3.84433	244
3.84800	252
3.85167	262
3.85533	274
3.85900	289
3.86267	307
3.86633	324
3.87000	340
3.87367	354
3.87733	369
3.88100	383
3.88467	396
3.88833	409
3.89200	423
3.89567	438
3.89933	451
3.90300	463
3.90667	473
3.91033	486
3.91400	500
3.91767	510
3.92133	519
3.92500	527
3.92867	534
3.93233	540
3.93600	547
3.93967	557
3.94333	562
3.94700	567
3.95067	569
3.95433	573
3.95800	574
3.96167	575
3.96533	577
3.96900	576
3.97267	577
3.97633	577
3.98000	575
3.98367	575
3.98733	576
3.99100	577
3.99467	576
3.99833	571

[Status Trace (Column Oven Temperature)]
Interval(msec)	1000
# of Points	240
Start Time(min)	0.010
End Time(min)	3.993
Intensity Units	
Intensity Multiplier	1
R.Time (min)	Intensity
0.00953	35.04
0.02620	35.05
0.04287	35.05
0.05953	35.06
0.07620	35.05
0.09287	35.04
0.10953	35.02
0.12620	35.02
0.14287	35.00
0.15953	35.01
0.17620	35.02
0.19287	35.02
0.20953	35.00
0.22620	35.00
0.24287	35.01
0.25953	35.02
0.27620	35.03
0.29287	35.02
0.30953	35.00
0.32620	35.00
0.34287	35.00
0.35953	35.00
0.37620	35.00
0.39287	35.00
0.40953	34.99
0.42620	34.99
0.44287	34.98
0.45953	34.99
0.47620	35.01
0.49287	35.03
0.50953	35.05
0.52620	35.06
0.54287	35.05
0.55953	35.03
0.57620	35.02
0.59287	35.01
0.60953	35.00
0.62620	34.99
0.64287	34.99
0.65953	34.99
0.67620	34.98
0.69287	34.99
0.70953	35.00
0.72620	34.99
0.74287	34.99
0.75953	34.99
0.77620	35.00
0.79287	35.02
0.80953	35.03
0.82620	35.02
0.84287	35.02
0.85953	35.02
0.87620	35.01
0.89287	35.00
0.90953	35.00
0.92620	34.99
0.94287	35.00
0.95953	35.00
0.97620	35.01
0.99287	35.02
1.00953	35.01
1.02620	35.02
1.04287	35.03
1.05953	35.02
1.07620	35.01
1.09287	35.00
1.10953	34.99
1.12620	34.99
1.14287	34.98
1.15953	34.98
1.17620	34.99
1.19287	35.00
1.20953	35.02
1.22620	35.03
1.24287	35.03
1.25953	35.03
1.27620	35.02
1.29287	35.01
1.30953	35.01
1.32620	35.01
1.34287	35.01
1.35953	35.02
1.37620	35.03
1.39287	35.03
1.40953	35.02
1.42620	35.03
1.44287	35.03
1.45953	35.03
1.47620	35.03
1.49287	35.03
1.50953	35.03
1.52620	35.02
1.54287	35.01
1.55953	35.00
1.57620	35.00
1.59287	35.02
1.60953	35.08
1.62620	35.22
1.64287	35.41
1.65953	35.65
1.67620	35.98
1.69287	36.35
1.70953	36.70
1.72620	37.04
1.74287	37.37
1.75953	37.71
1.77620	38.04
1.79287	38.37
1.80953	38.71
1.82620	39.04
1.84287	39.35
1.85953	39.70
1.87620	40.03
1.89287	40.35
1.90953	40.68
1.92620	41.01
1.94287	41.33
1.95953	41.66
1.97620	41.98
1.99287	42.31
2.00953	42.64
2.02620	42.95
2.04287	43.28
2.05953	43.62
2.07620	43.94
2.09287	44.26
2.10953	44.60
2.12620	44.92
2.14287	45.27
2.15953	45.59
2.17620	45.90
2.19287	46.25
2.20953	46.56
2.22620	46.91
2.24287	47.21
2.25953	47.53
2.27620	47.85
2.29287	48.19
2.30953	48.52
2.32620	48.85
2.34287	49.17
2.35953	49.47
2.37620	49.65
2.39287	49.70
2.40953	49.69
2.42620	49.69
2.44287	49.70
2.45953	49.71
2.47620	49.72
2.49287	49.73
2.50953	49.74
2.52620	49.76
2.54287	49.77
2.55953	49.77
2.57620	49.80
2.59287	49.81
2.60953	49.82
2.62620	49.83
2.64287	49.84
2.65953	49.86
2.67620	49.83
2.69287	49.84
2.70953	49.86
2.72620	49.86
2.74287	49.85
2.75953	49.85
2.77620	49.87
2.79287	49.87
2.80953	49.87
2.82620	49.87
2.84287	49.88
2.85953	49.89
2.87620	49.91
2.89287	49.93
2.90953	49.94
2.92620	49.94
2.94287	49.95
2.95953	49.95
2.97620	49.97
2.99287	49.99
3.00953	50.01
3.02620	50.01
3.04287	50.01
3.05953	50.01
3.07620	50.00
3.09287	50.01
3.10953	50.03
3.12620	50.04
3.14287	50.05
3.15953	50.06
3.17620	50.06
3.19287	50.07
3.20953	50.07
3.22620	50.08
3.24287	50.08
3.25953	50.08
3.27620	50.09
3.29287	50.10
3.30953	50.10
3.32620	50.09
3.34287	50.08
3.35953	50.07
3.37620	50.08
3.39287	50.07
3.40953	50.08
3.42620	50.08
3.44287	50.07
3.45953	50.07
3.47620	50.08
3.49287	50.08
3.50953	50.08
3.52620	50.06
3.54287	50.06
3.55953	50.06
3.57620	50.07
3.59287	50.07
3.60953	50.08
3.62620	50.08
3.64287	50.08
3.65953	50.09
3.67620	50.08
3.69287	50.08
3.70953	50.07
3.72620	50.08
3.74287	50.07
3.75953	50.07
3.77620	50.07
3.79287	50.07
3.80953	50.09
3.82620	50.09
3.84287	50.09
3.85953	50.09
3.87620	50.08
3.89287	50.08
3.90953	50.08
3.92620	50.08
3.94287	50.06
3.95953	50.05
3.97620	50.05
3.99287	50.05

[Status Trace (Injection Unit Temperature)]
Interval(msec)	1000
# of Points	240
Start Time(min)	0.010
End Time(min)	3.993
Intensity Units	
Intensity Multiplier	1
R.Time (min)	Intensity
0.00953	99.97
0.02620	99.98
0.04287	99.97
0.05953	99.97
0.07620	99.97
0.09287	99.98
0.10953	99.97
0.12620	99.98
0.14287	99.98
0.15953	99.98
0.17620	99.98
0.19287	99.98
0.20953	99.98
0.22620	99.97
0.24287	99.98
0.25953	99.97
0.27620	99.97
0.29287	99.97
0.30953	99.97
0.32620	99.97
0.34287	99.98
0.35953	99.97
0.37620	99.97
0.39287	99.97
0.40953	99.97
0.42620	99.98
0.44287	99.97
0.45953	99.97
0.47620	99.97
0.49287	99.98
0.50953	99.97
0.52620	99.97
0.54287	99.97
0.55953	99.98
0.57620	99.98
0.59287	99.97
0.60953	99.97
0.62620	99.98
0.64287	99.98
0.65953	99.97
0.67620	99.98
0.69287	99.98
0.70953	99.97
0.72620	99.98
0.74287	99.98
0.75953	99.98
0.77620	99.98
0.79287	99.98
0.80953	99.98
0.82620	99.98
0.84287	99.98
0.85953	99.98
0.87620	99.98
0.89287	99.98
0.90953	99.99
0.92620	99.98
0.94287	99.98
0.95953	99.98
0.97620	99.98
0.99287	99.98
1.00953	99.98
1.02620	99.98
1.04287	99.98
1.05953	99.98
1.07620	99.98
1.09287	99.98
1.10953	99.98
1.12620	99.98
1.14287	99.98
1.15953	99.98
1.17620	99.98
1.19287	99.98
1.20953	99.98
1.22620	99.98
1.24287	99.98
1.25953	99.98
1.27620	99.98
1.29287	99.98
1.30953	99.98
1.32620	99.98
1.34287	99.98
1.35953	99.98
1.37620	99.98
1.39287	99.99
1.40953	99.99
1.42620	99.99
1.44287	99.98
1.45953	99.98
1.47620	99.98
1.49287	99.98
1.50953	99.99
1.52620	99.98
1.54287	99.98
1.55953	99.98
1.57620	99.98
1.59287	99.98
1.60953	99.98
1.62620	99.98
1.64287	99.98
1.65953	99.98
1.67620	99.98
1.69287	99.98
1.70953	99.99
1.72620	99.98
1.74287	99.98
1.75953	99.98
1.77620	99.98
1.79287	99.98
1.80953	99.98
1.82620	99.98
1.84287	99.98
1.85953	99.98
1.87620	99.98
1.89287	99.98
1.90953	99.97
1.92620	99.97
1.94287	99.97
1.95953	99.97
1.97620	99.97
1.99287	99.97
2.00953	99.97
2.02620	99.97
2.04287	99.97
2.05953	99.97
2.07620	99.97
2.09287	99.97
2.10953	99.97
2.12620	99.97
2.14287	99.97
2.15953	99.97
2.17620	99.97
2.19287	99.97
2.20953	99.97
2.22620	99.97
2.24287	99.96
2.25953	99.96
2.27620	99.96
2.29287	99.97
2.30953	99.97
2.32620	99.96
2.34287	99.97
2.35953	99.96
2.37620	99.96
2.39287	99.96
2.40953	99.96
2.42620	99.96
2.44287	99.96
2.45953	99.97
2.47620	99.97
2.49287	99.96
2.50953	99.97
2.52620	99.97
2.54287	99.96
2.55953	99.97
2.57620	99.97
2.59287	99.96
2.60953	99.97
2.62620	99.98
2.64287	99.97
2.65953	99.98
2.67620	99.98
2.69287	99.98
2.70953	99.98
2.72620	99.98
2.74287	99.98
2.75953	99.99
2.77620	99.99
2.79287	99.99
2.80953	99.99
2.82620	99.99
2.84287	99.99
2.85953	100.00
2.87620	100.00
2.89287	100.00
2.90953	100.00
2.92620	100.00
2.94287	100.00
2.95953	100.01
2.97620	100.01
2.99287	100.01
3.00953	100.01
3.02620	100.02
3.04287	100.02
3.05953	100.02
3.07620	100.02
3.09287	100.02
3.10953	100.02
3.12620	100.02
3.14287	100.02
3.15953	100.02
3.17620	100.02
3.19287	100.03
3.20953	100.03
3.22620	100.03
3.24287	100.03
3.25953	100.03
3.27620	100.03
3.29287	100.03
3.30953	100.03
3.32620	100.03
3.34287	100.03
3.35953	100.03
3.37620	100.04
3.39287	100.04
3.40953	100.03
3.42620	100.04
3.44287	100.04
3.45953	100.03
3.47620	100.04
3.49287	100.04
3.50953	100.03
3.52620	100.04
3.54287	100.04
3.55953	100.04
3.57620	100.04
3.59287	100.04
3.60953	100.03
3.62620	100.04
3.64287	100.04
3.65953	100.04
3.67620	100.04
3.69287	100.04
3.70953	100.04
3.72620	100.04
3.74287	100.04
3.75953	100.05
3.77620	100.04
3.79287	100.04
3.80953	100.05
3.82620	100.04
3.84287	100.04
3.85953	100.04
3.87620	100.04
3.89287	100.03
3.90953	100.04
3.92620	100.04
3.94287	100.04
3.95953	100.04
3.97620	100.04
3.99287	100.04

[Status Trace (Carrier Gas Pressure)]
Interval(msec)	1000
# of Points	240
Start Time(min)	0.010
End Time(min)	3.993
Intensity Units	
Intensity Multiplier	1
R.Time (min)	Intensity
0.00953	58.00
0.02620	55.24
0.04287	57.35
0.05953	59.50
0.07620	59.22
0.09287	58.03
0.10953	57.99
0.12620	58.01
0.14287	58.01
0.15953	58.01
0.17620	58.00
0.19287	58.00
0.20953	58.00
0.22620	58.00
0.24287	58.00
0.25953	58.00
0.27620	58.00
0.29287	58.00
0.30953	58.00
0.32620	58.00
0.34287	58.00
0.35953	58.00
0.37620	58.00
0.39287	58.00
0.40953	58.00
0.42620	58.00
0.44287	58.00
0.45953	58.00
0.47620	58.00
0.49287	58.00
0.50953	58.00
0.52620	58.00
0.54287	58.00
0.55953	58.00
0.57620	58.00
0.59287	58.00
0.60953	58.00
0.62620	58.00
0.64287	58.00
0.65953	58.00
0.67620	58.00
0.69287	58.00
0.70953	58.00
0.72620	58.00
0.74287	58.00
0.75953	58.00
0.77620	58.00
0.79287	58.00
0.80953	58.00
0.82620	58.00
0.84287	58.00
0.85953	58.00
0.87620	58.00
0.89287	58.00
0.90953	58.00
0.92620	58.00
0.94287	58.00
0.95953	58.00
0.97620	58.00
0.99287	58.00
1.00953	58.00
1.02620	58.00
1.04287	58.00
1.05953	58.00
1.07620	58.00
1.09287	58.00
1.10953	58.00
1.12620	58.00
1.14287	58.00
1.15953	58.00
1.17620	58.00
1.19287	58.00
1.20953	58.00
1.22620	58.00
1.24287	58.00
1.25953	58.00
1.27620	58.00
1.29287	58.00
1.30953	58.00
1.32620	58.00
1.34287	58.00
1.35953	58.00
1.37620	58.00
1.39287	58.00
1.40953	58.00
1.42620	58.00
1.44287	58.00
1.45953	58.00
1.47620	58.00
1.49287	58.00
1.50953	58.00
1.52620	58.00
1.54287	58.00
1.55953	58.00
1.57620	58.00
1.59287	58.00
1.60953	58.00
1.62620	58.01
1.64287	58.00
1.65953	58.00
1.67620	58.01
1.69287	58.00
1.70953	58.00
1.72620	58.00
1.74287	58.00
1.75953	58.00
1.77620	58.00
1.79287	58.00
1.80953	58.00
1.82620	58.00
1.84287	58.00
1.85953	58.00
1.87620	58.00
1.89287	58.00
1.90953	58.00
1.92620	58.00
1.94287	58.00
1.95953	58.00
1.97620	58.00
1.99287	58.00
2.00953	58.00
2.02620	58.00
2.04287	58.00
2.05953	58.00
2.07620	58.00
2.09287	58.00
2.10953	58.00
2.12620	58.00
2.14287	58.00
2.15953	58.00
2.17620	58.00
2.19287	58.00
2.20953	58.00
2.22620	58.00
2.24287	58.00
2.25953	58.00
2.27620	58.00
2.29287	58.00
2.30953	58.00
2.32620	58.00
2.34287	58.00
2.35953	58.00
2.37620	58.00
2.39287	57.99
2.40953	57.99
2.42620	58.00
2.44287	58.00
2.45953	58.00
2.47620	58.00
2.49287	58.00
2.50953	57.99
2.52620	57.98
2.54287	58.00
2.55953	58.00
2.57620	58.00
2.59287	58.00
2.60953	58.00
2.62620	58.00
2.64287	58.00
2.65953	58.00
2.67620	58.00
2.69287	58.00
2.70953	58.00
2.72620	58.00
2.74287	58.00
2.75953	58.00
2.77620	58.00
2.79287	58.00
2.80953	58.00
2.82620	58.00
2.84287	58.00
2.85953	58.00
2.87620	58.00
2.89287	58.00
2.90953	58.00
2.92620	58.00
2.94287	58.00
2.95953	58.00
2.97620	58.00
2.99287	58.00
3.00953	58.00
3.02620	58.00
3.04287	58.00
3.05953	58.00
3.07620	58.00
3.09287	58.00
3.10953	58.00
3.12620	58.00
3.14287	58.00
3.15953	58.00
3.17620	58.00
3.19287	58.00
3.20953	58.00
3.22620	58.00
3.24287	58.00
3.25953	58.00
3.27620	58.00
3.29287	58.00
3.30953	58.00
3.32620	58.00
3.34287	58.00
3.35953	58.00
3.37620	58.00
3.39287	58.00
3.40953	58.00
3.42620	58.00
3.44287	58.00
3.45953	58.00
3.47620	58.00
3.49287	58.00
3.50953	58.00
3.52620	58.00
3.54287	58.00
3.55953	58.00
3.57620	58.00
3.59287	58.00
3.60953	58.00
3.62620	58.00
3.64287	58.00
3.65953	58.00
3.67620	58.00
3.69287	58.00
3.70953	58.00
3.72620	58.00
3.74287	58.00
3.75953	58.00
3.77620	58.00
3.79287	58.00
3.80953	58.00
3.82620	58.00
3.84287	58.00
3.85953	58.00
3.87620	58.00
3.89287	58.00
3.90953	58.00
3.92620	58.00
3.94287	58.00
3.95953	58.00
3.97620	58.00
3.99287	58.00

[Status Trace (Carrier Gas Flow)]
Interval(msec)	1000
# of Points	240
Start Time(min)	0.010
End Time(min)	3.993
Intensity Units	
Intensity Multiplier	1
R.Time (min)	Intensity
0.00953	34.52
0.02620	34.54
0.04287	34.55
0.05953	34.54
0.07620	34.51
0.09287	34.51
0.10953	34.52
0.12620	34.52
0.14287	34.52
0.15953	34.52
0.17620	34.52
0.19287	34.52
0.20953	34.52
0.22620	34.52
0.24287	34.52
0.25953	34.52
0.27620	34.52
0.29287	34.52
0.30953	34.52
0.32620	34.52
0.34287	34.52
0.35953	34.51
0.37620	34.52
0.39287	34.52
0.40953	34.52
0.42620	34.51
0.44287	34.52
0.45953	34.52
0.47620	34.52
0.49287	34.52
0.50953	34.52
0.52620	34.52
0.54287	34.52
0.55953	34.52
0.57620	34.52
0.59287	34.52
0.60953	34.52
0.62620	34.52
0.64287	34.52
0.65953	34.52
0.67620	34.52
0.69287	34.51
0.70953	34.51
0.72620	34.52
0.74287	34.52
0.75953	34.51
0.77620	34.52
0.79287	34.52
0.80953	34.52
0.82620	34.52
0.84287	34.52
0.85953	34.52
0.87620	34.52
0.89287	34.52
0.90953	34.52
0.92620	34.52
0.94287	34.52
0.95953	34.51
0.97620	34.52
0.99287	34.52
1.00953	34.52
1.02620	34.51
1.04287	34.51
1.05953	34.52
1.07620	34.52
1.09287	34.52
1.10953	34.52
1.12620	34.52
1.14287	34.52
1.15953	34.51
1.17620	34.52
1.19287	34.51
1.20953	34.52
1.22620	34.52
1.24287	34.51
1.25953	34.51
1.27620	34.52
1.29287	34.52
1.30953	34.52
1.32620	34.52
1.34287	34.52
1.35953	34.52
1.37620	34.51
1.39287	34.52
1.40953	34.52
1.42620	34.52
1.44287	34.52
1.45953	34.52
1.47620	34.52
1.49287	34.52
1.50953	34.52
1.52620	34.52
1.54287	34.52
1.55953	34.52
1.57620	34.52
1.59287	34.52
1.60953	34.52
1.62620	34.52
1.64287	34.52
1.65953	34.52
1.67620	34.52
1.69287	34.52
1.70953	34.52
1.72620	34.52
1.74287	34.52
1.75953	34.52
1.77620	34.52
1.79287	34.52
1.80953	34.52
1.82620	34.52
1.84287	34.52
1.85953	34.52
1.87620	34.52
1.89287	34.51
1.90953	34.52
1.92620	34.52
1.94287	34.52
1.95953	34.52
1.97620	34.52
1.99287	34.52
2.00953	34.52
2.02620	34.52
2.04287	34.52
2.05953	34.52
2.07620	34.52
2.09287	34.52
2.10953	34.51
2.12620	34.52
2.14287	34.52
2.15953	34.52
2.17620	34.52
2.19287	34.52
2.20953	34.52
2.22620	34.52
2.24287	34.52
2.25953	34.52
2.27620	34.52
2.29287	34.52
2.30953	34.52
2.32620	34.52
2.34287	34.52
2.35953	34.52
2.37620	34.52
2.39287	34.51
2.40953	34.52
2.42620	34.52
2.44287	34.52
2.45953	34.52
2.47620	34.52
2.49287	34.51
2.50953	34.51
2.52620	34.52
2.54287	34.52
2.55953	34.52
2.57620	34.52
2.59287	34.52
2.60953	34.52
2.62620	34.52
2.64287	34.52
2.65953	34.52
2.67620	34.52
2.69287	34.52
2.70953	34.52
2.72620	34.52
2.74287	34.52
2.75953	34.52
2.77620	34.52
2.79287	34.52
2.80953	34.52
2.82620	34.52
2.84287	34.51
2.85953	34.52
2.87620	34.52
2.89287	34.52
2.90953	34.52
2.92620	34.52
2.94287	34.52
2.95953	34.52
2.97620	34.52
2.99287	34.52
3.00953	34.52
3.02620	34.51
3.04287	34.52
3.05953	34.51
3.07620	34.52
3.09287	34.52
3.10953	34.52
3.12620	34.52
3.14287	34.52
3.15953	34.51
3.17620	34.52
3.19287	34.52
3.20953	34.52
3.22620	34.52
3.24287	34.52
3.25953	34.52
3.27620	34.53
3.29287	34.52
3.30953	34.51
3.32620	34.51
3.34287	34.52
3.35953	34.52
3.37620	34.52
3.39287	34.52
3.40953	34.52
3.42620	34.53
3.44287	34.53
3.45953	34.52
3.47620	34.52
3.49287	34.52
3.50953	34.53
3.52620	34.52
3.54287	34.51
3.55953	34.52
3.57620	34.52
3.59287	34.52
3.60953	34.52
3.62620	34.52
3.64287	34.52
3.65953	34.52
3.67620	34.52
3.69287	34.52
3.70953	34.52
3.72620	34.52
3.74287	34.51
3.75953	34.52
3.77620	34.52
3.79287	34.52
3.80953	34.52
3.82620	34.52
3.84287	34.52
3.85953	34.52
3.87620	34.52
3.89287	34.52
3.90953	34.52
3.92620	34.52
3.94287	34.52
3.95953	34.52
3.97620	34.52
3.99287	34.52

[Status Trace (Column Flow)]
Interval(msec)	1000
# of Points	240
Start Time(min)	0.010
End Time(min)	3.993
Intensity Units	
Intensity Multiplier	1
R.Time (min)	Intensity
0.00953	5.52
0.02620	5.20
0.04287	5.44
0.05953	5.70
0.07620	5.66
0.09287	5.52
0.10953	5.52
0.12620	5.52
0.14287	5.52
0.15953	5.52
0.17620	5.52
0.19287	5.52
0.20953	5.52
0.22620	5.52
0.24287	5.52
0.25953	5.52
0.27620	5.52
0.29287	5.52
0.30953	5.52
0.32620	5.52
0.34287	5.52
0.35953	5.52
0.37620	5.52
0.39287	5.52
0.40953	5.52
0.42620	5.52
0.44287	5.52
0.45953	5.52
0.47620	5.52
0.49287	5.52
0.50953	5.52
0.52620	5.52
0.54287	5.52
0.55953	5.52
0.57620	5.52
0.59287	5.52
0.60953	5.52
0.62620	5.52
0.64287	5.52
0.65953	5.52
0.67620	5.52
0.69287	5.52
0.70953	5.52
0.72620	5.52
0.74287	5.52
0.75953	5.52
0.77620	5.52
0.79287	5.52
0.80953	5.52
0.82620	5.52
0.84287	5.52
0.85953	5.52
0.87620	5.52
0.89287	5.52
0.90953	5.52
0.92620	5.52
0.94287	5.52
0.95953	5.52
0.97620	5.52
0.99287	5.52
1.00953	5.52
1.02620	5.52
1.04287	5.52
1.05953	5.52
1.07620	5.52
1.09287	5.52
1.10953	5.52
1.12620	5.52
1.14287	5.52
1.15953	5.52
1.17620	5.52
1.19287	5.52
1.20953	5.52
1.22620	5.52
1.24287	5.52
1.25953	5.52
1.27620	5.52
1.29287	5.52
1.30953	5.52
1.32620	5.52
1.34287	5.52
1.35953	5.52
1.37620	5.52
1.39287	5.52
1.40953	5.52
1.42620	5.52
1.44287	5.52
1.45953	5.52
1.47620	5.52
1.49287	5.52
1.50953	5.52
1.52620	5.52
1.54287	5.52
1.55953	5.52
1.57620	5.52
1.59287	5.52
1.60953	5.52
1.62620	5.52
1.64287	5.51
1.65953	5.50
1.67620	5.49
1.69287	5.48
1.70953	5.47
1.72620	5.46
1.74287	5.45
1.75953	5.44
1.77620	5.43
1.79287	5.42
1.80953	5.41
1.82620	5.40
1.84287	5.39
1.85953	5.38
1.87620	5.37
1.89287	5.36
1.90953	5.35
1.92620	5.34
1.94287	5.33
1.95953	5.32
1.97620	5.31
1.99287	5.30
2.00953	5.29
2.02620	5.28
2.04287	5.27
2.05953	5.26
2.07620	5.25
2.09287	5.24
2.10953	5.23
2.12620	5.22
2.14287	5.21
2.15953	5.20
2.17620	5.19
2.19287	5.18
2.20953	5.18
2.22620	5.17
2.24287	5.16
2.25953	5.15
2.27620	5.14
2.29287	5.13
2.30953	5.12
2.32620	5.11
2.34287	5.10
2.35953	5.09
2.37620	5.09
2.39287	5.09
2.40953	5.09
2.42620	5.09
2.44287	5.09
2.45953	5.09
2.47620	5.09
2.49287	5.09
2.50953	5.09
2.52620	5.08
2.54287	5.08
2.55953	5.08
2.57620	5.08
2.59287	5.08
2.60953	5.08
2.62620	5.08
2.64287	5.08
2.65953	5.08
2.67620	5.08
2.69287	5.08
2.70953	5.08
2.72620	5.08
2.74287	5.08
2.75953	5.08
2.77620	5.08
2.79287	5.08
2.80953	5.08
2.82620	5.08
2.84287	5.08
2.85953	5.08
2.87620	5.08
2.89287	5.08
2.90953	5.08
2.92620	5.08
2.94287	5.08
2.95953	5.08
2.97620	5.08
2.99287	5.08
3.00953	5.08
3.02620	5.08
3.04287	5.08
3.05953	5.08
3.07620	5.08
3.09287	5.08
3.10953	5.08
3.12620	5.08
3.14287	5.08
3.15953	5.08
3.17620	5.08
3.19287	5.08
3.20953	5.08
3.22620	5.08
3.24287	5.08
3.25953	5.08
3.27620	5.08
3.29287	5.08
3.30953	5.08
3.32620	5.08
3.34287	5.08
3.35953	5.08
3.37620	5.08
3.39287	5.08
3.40953	5.08
3.42620	5.08
3.44287	5.08
3.45953	5.08
3.47620	5.08
3.49287	5.08
3.50953	5.08
3.52620	5.08
3.54287	5.08
3.55953	5.08
3.57620	5.08
3.59287	5.08
3.60953	5.08
3.62620	5.08
3.64287	5.08
3.65953	5.08
3.67620	5.08
3.69287	5.08
3.70953	5.08
3.72620	5.08
3.74287	5.08
3.75953	5.08
3.77620	5.08
3.79287	5.08
3.80953	5.08
3.82620	5.08
3.84287	5.08
3.85953	5.08
3.87620	5.08
3.89287	5.08
3.90953	5.08
3.92620	5.08
3.94287	5.08
3.95953	5.08
3.97620	5.08
3.99287	5.08

[Status Trace (Linear Velocity)]
Interval(msec)	1000
# of Points	240
Start Time(min)	0.010
End Time(min)	3.993
Intensity Units	
Intensity Multiplier	1
R.Time (min)	Intensity
0.00953	39.01
0.02620	37.20
0.04287	38.58
0.05953	39.99
0.07620	39.81
0.09287	39.03
0.10953	39.01
0.12620	39.02
0.14287	39.02
0.15953	39.02
0.17620	39.02
0.19287	39.02
0.20953	39.02
0.22620	39.02
0.24287	39.02
0.25953	39.02
0.27620	39.02
0.29287	39.02
0.30953	39.02
0.32620	39.02
0.34287	39.02
0.35953	39.02
0.37620	39.02
0.39287	39.02
0.40953	39.02
0.42620	39.02
0.44287	39.02
0.45953	39.02
0.47620	39.02
0.49287	39.01
0.50953	39.01
0.52620	39.01
0.54287	39.01
0.55953	39.01
0.57620	39.01
0.59287	39.02
0.60953	39.02
0.62620	39.02
0.64287	39.02
0.65953	39.02
0.67620	39.02
0.69287	39.02
0.70953	39.02
0.72620	39.02
0.74287	39.02
0.75953	39.02
0.77620	39.02
0.79287	39.02
0.80953	39.01
0.82620	39.01
0.84287	39.01
0.85953	39.01
0.87620	39.02
0.89287	39.02
0.90953	39.02
0.92620	39.02
0.94287	39.02
0.95953	39.02
0.97620	39.02
0.99287	39.02
1.00953	39.02
1.02620	39.01
1.04287	39.01
1.05953	39.01
1.07620	39.02
1.09287	39.02
1.10953	39.02
1.12620	39.02
1.14287	39.02
1.15953	39.02
1.17620	39.02
1.19287	39.02
1.20953	39.02
1.22620	39.01
1.24287	39.01
1.25953	39.01
1.27620	39.01
1.29287	39.02
1.30953	39.02
1.32620	39.02
1.34287	39.02
1.35953	39.01
1.37620	39.01
1.39287	39.01
1.40953	39.01
1.42620	39.01
1.44287	39.01
1.45953	39.01
1.47620	39.01
1.49287	39.01
1.50953	39.01
1.52620	39.02
1.54287	39.02
1.55953	39.02
1.57620	39.02
1.59287	39.02
1.60953	39.01
1.62620	39.00
1.64287	38.98
1.65953	38.96
1.67620	38.93
1.69287	38.89
1.70953	38.85
1.72620	38.82
1.74287	38.79
1.75953	38.76
1.77620	38.73
1.79287	38.70
1.80953	38.66
1.82620	38.63
1.84287	38.60
1.85953	38.57
1.87620	38.54
1.89287	38.51
1.90953	38.48
1.92620	38.45
1.94287	38.42
1.95953	38.39
1.97620	38.36
1.99287	38.33
2.00953	38.30
2.02620	38.27
2.04287	38.24
2.05953	38.21
2.07620	38.18
2.09287	38.15
2.10953	38.12
2.12620	38.09
2.14287	38.06
2.15953	38.03
2.17620	38.00
2.19287	37.97
2.20953	37.94
2.22620	37.91
2.24287	37.88
2.25953	37.85
2.27620	37.82
2.29287	37.79
2.30953	37.76
2.32620	37.74
2.34287	37.71
2.35953	37.68
2.37620	37.66
2.39287	37.65
2.40953	37.66
2.42620	37.66
2.44287	37.66
2.45953	37.66
2.47620	37.66
2.49287	37.66
2.50953	37.65
2.52620	37.64
2.54287	37.65
2.55953	37.65
2.57620	37.65
2.59287	37.65
2.60953	37.65
2.62620	37.65
2.64287	37.65
2.65953	37.65
2.67620	37.65
2.69287	37.65
2.70953	37.65
2.72620	37.64
2.74287	37.65
2.75953	37.65
2.77620	37.64
2.79287	37.64
2.80953	37.64
2.82620	37.64
2.84287	37.64
2.85953	37.64
2.87620	37.64
2.89287	37.64
2.90953	37.64
2.92620	37.64
2.94287	37.64
2.95953	37.64
2.97620	37.64
2.99287	37.63
3.00953	37.63
3.02620	37.63
3.04287	37.63
3.05953	37.63
3.07620	37.63
3.09287	37.63
3.10953	37.63
3.12620	37.63
3.14287	37.63
3.15953	37.63
3.17620	37.63
3.19287	37.63
3.20953	37.63
3.22620	37.63
3.24287	37.63
3.25953	37.63
3.27620	37.63
3.29287	37.62
3.30953	37.62
3.32620	37.62
3.34287	37.63
3.35953	37.63
3.37620	37.63
3.39287	37.63
3.40953	37.63
3.42620	37.63
3.44287	37.63
3.45953	37.63
3.47620	37.63
3.49287	37.63
3.50953	37.63
3.52620	37.63
3.54287	37.63
3.55953	37.63
3.57620	37.63
3.59287	37.63
3.60953	37.63
3.62620	37.63
3.64287	37.63
3.65953	37.63
3.67620	37.62
3.69287	37.63
3.70953	37.63
3.72620	37.63
3.74287	37.63
3.75953	37.63
3.77620	37.63
3.79287	37.63
3.80953	37.63
3.82620	37.63
3.84287	37.62
3.85953	37.62
3.87620	37.63
3.89287	37.63
3.90953	37.63
3.92620	37.63
3.94287	37.63
3.95953	37.63
3.97620	37.63
3.99287	37.63

