[Header]
Application Name	LabSolutions
Version	5.110
Data File Name	C:\Users\User\Desktop\GC Analyses\Jack\Nachusa Grasslands Sampling\T3 Timepoint July 12th\T3_07122022_082.gcd
Output Date	3/14/2023
Output Time	3:43:35 PM

[File Information]
Type	Data File
Generated	3/13/2023 11:40:13 PM
Generated by	System Administrator
Modified	3/13/2023 11:46:54 PM
Modified by	System Administrator

[Sample Information]
Operator Name	System Administrator
Acquired	3/13/2023 11:42:54 PM
Sample Type	0:Unknown
Level	0
Sample Name	082
Sample ID	082
ISTD Amount1	1
ISTD Amount2	1
ISTD Amount3	1
ISTD Amount4	1
ISTD Amount5	1
ISTD Amount6	1
ISTD Amount7	1
ISTD Amount8	1
ISTD Amount9	1
ISTD Amount10	1
ISTD Amount11	1
ISTD Amount12	1
ISTD Amount13	1
ISTD Amount14	1
ISTD Amount15	1
ISTD Amount16	1
ISTD Amount17	1
ISTD Amount18	1
ISTD Amount19	1
ISTD Amount20	1
ISTD Amount21	1
ISTD Amount22	1
ISTD Amount23	1
ISTD Amount24	1
ISTD Amount25	1
ISTD Amount26	1
ISTD Amount27	1
ISTD Amount28	1
ISTD Amount29	1
ISTD Amount30	1
ISTD Amount31	1
ISTD Amount32	1
Sample Amount	1
Dilution Factor	1
Vial#	81
Injection Volume	1
Injection Count	1
Bar Code	

[Original Files]
Data File	C:\Users\User\Desktop\GC Analyses\Jack\Nachusa Grasslands Sampling\T3 Timepoint July 12th\T3_07122022_082.gcd
Method File	C:\LabSolutions\Data\GHG_4min_2022\ghg3_togas_w_acet_4 min_new_int.gcm
Batch File	C:\LabSolutions\Data\AutoSamplerTesting\T3_07122022.gcb
Report Format File	c:\LabSolutions\System\DEFAULT.lsr

[File Description]


[Configuration]
Instrument Name	C0B7VH3-Instrument1
Instrument #	1
Line #	1
# of Detectors	3
Detector ID	DET#1	DET#2	DET#3
Detector Name	FID	PTCD	ECD
# of Channels	1	1	1

[Peak Table(Ch1)]
# of Peaks	4
Peak#	R.Time	I.Time	F.Time	Area	Height	A/H	Conc.	Mark	ID#	Name	k'	Plate #	Plate Ht.	Tailing	Resolution	Sep.Factor	Area Ratio	Height Ratio	Conc. %	Norm Conc.
1	0.277	0.126	0.394	733	105	6.953	0.000	   			0.000	47	3169.492	0.849	0.000	0.000	0	0	0.000	0.000
2	1.476	1.439	1.534	32290	16047	2.012	227.969	   	1	CO	4.334	9738	15.404	1.270	10.866	0.000	0	0	21.634	21.634
3	1.571	1.538	1.622	3851	1995	1.930	74.465	   	2	CH4	4.678	11895	12.610	1.134	1.624	1.080	0	0	7.067	7.067
4	1.996	1.952	2.370	2993587	1439577	2.079	751.309	   	3	CO2	6.216	17392	8.624	1.323	7.199	1.329	0	0	71.299	71.299

[Peak Table(Ch2)]
# of Peaks	0

[Peak Table(Ch3)]
# of Peaks	5
Peak#	R.Time	I.Time	F.Time	Area	Height	A/H	Conc.	Mark	ID#	Name	k'	Plate #	Plate Ht.	Tailing	Resolution	Sep.Factor	Area Ratio	Height Ratio	Conc. %	Norm Conc.
1	2.462	2.341	2.510	2148	717	2.998	0.000	   			0.000	11824	12.686	0.000	0.000	0.000	0	0	0.000	0.000
2	2.532	2.510	2.579	919	328	2.806	0.000	 V 			0.028	8209	18.272	0.000	0.689	0.000	0	0	0.000	0.000
3	2.605	2.579	2.675	489	127	3.838	0.000	 V 			0.058	1659	90.433	0.000	0.399	2.053	0	0	0.000	0.000
4	2.880	2.697	3.056	20500	5069	4.044	0.524	   	1	N2O	0.170	12856	11.667	1.578	1.539	2.923	0	0	100.000	100.000
5	3.133	3.060	3.558	11038	561	19.675	0.000	   	2	SF6	0.273	770	194.700	3.480	0.915	1.605	0	0	0.000	0.000

[Compound Results(Ch1)]
# of IDs	6
ID#	Name	R.Time	Area	Height	Conc.	Curve	3rd	2nd	1st	Constant	Area Ratio	Height Ratio	Conc. %	Norm Conc.
1	CO	1.476	32290	16047	227.969	Linear	0.000000e+00	0.000000e+00	1.416423e+002	0.000000e+00	0	0	21.634	21.634
2	CH4	1.571	3851	1995	74.465	Linear	0.000000e+00	0.000000e+00	5.171738e+001	0.000000e+00	0	0	7.067	7.067
3	CO2	1.996	2993587	1439577	751.309	Linear	0.000000e+00	0.000000e+00	3.984494e+003	0.000000e+00	0	0	71.299	71.299
4	Ethylene	0.000	0	0	0.000	Linear	0.000000e+00	0.000000e+00	0.000000e+00	0.000000e+00	0	0	0.000	0.000
5	Acetylene	0.000	0	0	0.000	Linear	0.000000e+00	0.000000e+00	0.000000e+00	0.000000e+00	0	0	0.000	0.000
6	Ethane	0.000	0	0	0.000	Linear	0.000000e+00	0.000000e+00	0.000000e+00	0.000000e+00	0	0	0.000	0.000

[Compound Results(Ch2)]
# of IDs	5
ID#	Name	R.Time	Area	Height	Conc.	Curve	3rd	2nd	1st	Constant	Area Ratio	Height Ratio	Conc. %	Norm Conc.
1	Hydrogen	0.000	0	0	0.000	Linear	0.000000e+00	0.000000e+00	0.000000e+00	0.000000e+00	0	0	0.000	0.000
2	Oxygen	0.000	0	0	0.000	Linear	0.000000e+00	0.000000e+00	0.000000e+00	0.000000e+00	0	0	0.000	0.000
3	Nitrogen	0.000	0	0	0.000	Linear	0.000000e+00	0.000000e+00	0.000000e+00	0.000000e+00	0	0	0.000	0.000
4	Methane	0.000	0	0	0.000	Linear	0.000000e+00	0.000000e+00	0.000000e+00	0.000000e+00	0	0	0.000	0.000
5	Carbon Monoxide	0.000	0	0	0.000	Linear	0.000000e+00	0.000000e+00	0.000000e+00	0.000000e+00	0	0	0.000	0.000

[Compound Results(Ch3)]
# of IDs	2
ID#	Name	R.Time	Area	Height	Conc.	Curve	3rd	2nd	1st	Constant	Area Ratio	Height Ratio	Conc. %	Norm Conc.
1	N2O	2.880	20500	5069	0.524	Linear	0.000000e+00	0.000000e+00	3.915173e+004	0.000000e+00	0	0	100.000	100.000
2	SF6	3.133	11038	561	0.000	Linear	0.000000e+00	0.000000e+00	0.000000e+00	0.000000e+00	0	0	0.000	0.000

[Group Results(Ch1)]
# of Groups	0

[Group Results(Ch2)]
# of Groups	0

[Group Results(Ch3)]
# of Groups	0

[Chromatogram (Ch1)]
Interval(msec)	220
# of Points	1091
Start Time(min)	0.002
End Time(min)	3.998
R.Time (min)	Intensity
0.00167	-41
0.00533	-33
0.00900	-29
0.01267	-28
0.01633	-31
0.02000	-35
0.02367	-34
0.02733	-29
0.03100	-27
0.03467	-25
0.03833	-20
0.04200	-11
0.04567	-8
0.04933	-12
0.05300	-14
0.05667	-16
0.06033	-16
0.06400	-12
0.06767	-7
0.07133	-1
0.07500	3
0.07867	3
0.08233	1
0.08600	-3
0.08967	-10
0.09333	-14
0.09700	-14
0.10067	-16
0.10433	-20
0.10800	-25
0.11167	-25
0.11533	-21
0.11900	-19
0.12267	-16
0.12633	-8
0.13000	-2
0.13367	-4
0.13733	-6
0.14100	-4
0.14467	-2
0.14833	3
0.15200	8
0.15567	11
0.15933	11
0.16300	10
0.16667	12
0.17033	15
0.17400	19
0.17767	22
0.18133	24
0.18500	25
0.18867	26
0.19233	30
0.19600	35
0.19967	37
0.20333	34
0.20700	34
0.21067	41
0.21433	50
0.21800	57
0.22167	60
0.22533	64
0.22900	71
0.23267	77
0.23633	86
0.24000	93
0.24367	97
0.24733	96
0.25100	95
0.25467	96
0.25833	100
0.26200	103
0.26567	105
0.26933	106
0.27300	110
0.27667	112
0.28033	112
0.28400	111
0.28767	110
0.29133	104
0.29500	93
0.29867	80
0.30233	70
0.30600	72
0.30967	80
0.31333	83
0.31700	76
0.32067	65
0.32433	57
0.32800	52
0.33167	51
0.33533	54
0.33900	57
0.34267	54
0.34633	46
0.35000	39
0.35367	35
0.35733	31
0.36100	27
0.36467	23
0.36833	21
0.37200	22
0.37567	26
0.37933	27
0.38300	27
0.38667	26
0.39033	21
0.39400	19
0.39767	20
0.40133	23
0.40500	27
0.40867	28
0.41233	25
0.41600	23
0.41967	20
0.42333	17
0.42700	11
0.43067	5
0.43433	5
0.43800	7
0.44167	7
0.44533	7
0.44900	10
0.45267	12
0.45633	15
0.46000	18
0.46367	24
0.46733	30
0.47100	34
0.47467	33
0.47833	25
0.48200	16
0.48567	6
0.48933	-3
0.49300	-11
0.49667	-11
0.50033	-8
0.50400	-6
0.50767	-8
0.51133	-7
0.51500	-3
0.51867	0
0.52233	3
0.52600	6
0.52967	8
0.53333	10
0.53700	11
0.54067	11
0.54433	11
0.54800	6
0.55167	-0
0.55533	-5
0.55900	-7
0.56267	-6
0.56633	-3
0.57000	-1
0.57367	5
0.57733	10
0.58100	15
0.58467	20
0.58833	18
0.59200	10
0.59567	4
0.59933	2
0.60300	1
0.60667	-1
0.61033	-4
0.61400	-1
0.61767	5
0.62133	6
0.62500	5
0.62867	5
0.63233	4
0.63600	3
0.63967	2
0.64333	2
0.64700	3
0.65067	2
0.65433	2
0.65800	3
0.66167	7
0.66533	14
0.66900	18
0.67267	18
0.67633	19
0.68000	20
0.68367	21
0.68733	21
0.69100	24
0.69467	30
0.69833	32
0.70200	26
0.70567	15
0.70933	4
0.71300	-6
0.71667	-10
0.72033	-9
0.72400	-6
0.72767	-5
0.73133	-8
0.73500	-10
0.73867	-11
0.74233	-8
0.74600	-4
0.74967	-2
0.75333	-3
0.75700	-1
0.76067	5
0.76433	14
0.76800	22
0.77167	27
0.77533	28
0.77900	25
0.78267	23
0.78633	24
0.79000	28
0.79367	31
0.79733	32
0.80100	31
0.80467	26
0.80833	18
0.81200	15
0.81567	16
0.81933	21
0.82300	27
0.82667	32
0.83033	33
0.83400	34
0.83767	38
0.84133	41
0.84500	43
0.84867	42
0.85233	43
0.85600	42
0.85967	40
0.86333	36
0.86700	33
0.87067	31
0.87433	29
0.87800	25
0.88167	24
0.88533	24
0.88900	25
0.89267	25
0.89633	28
0.90000	33
0.90367	38
0.90733	39
0.91100	37
0.91467	36
0.91833	37
0.92200	43
0.92567	49
0.92933	50
0.93300	47
0.93667	44
0.94033	39
0.94400	34
0.94767	28
0.95133	21
0.95500	16
0.95867	17
0.96233	25
0.96600	35
0.96967	42
0.97333	41
0.97700	32
0.98067	25
0.98433	21
0.98800	24
0.99167	29
0.99533	32
0.99900	35
1.00267	40
1.00633	45
1.01000	49
1.01367	51
1.01733	53
1.02100	55
1.02467	53
1.02833	46
1.03200	35
1.03567	24
1.03933	15
1.04300	9
1.04667	7
1.05033	8
1.05400	11
1.05767	21
1.06133	32
1.06500	36
1.06867	33
1.07233	24
1.07600	15
1.07967	9
1.08333	8
1.08700	10
1.09067	13
1.09433	14
1.09800	13
1.10167	11
1.10533	7
1.10900	4
1.11267	3
1.11633	3
1.12000	7
1.12367	14
1.12733	23
1.13100	28
1.13467	29
1.13833	25
1.14200	23
1.14567	21
1.14933	17
1.15300	11
1.15667	7
1.16033	8
1.16400	13
1.16767	18
1.17133	17
1.17500	12
1.17867	8
1.18233	10
1.18600	16
1.18967	17
1.19333	16
1.19700	17
1.20067	20
1.20433	21
1.20800	22
1.21167	23
1.21533	24
1.21900	23
1.22267	18
1.22633	12
1.23000	13
1.23367	13
1.23733	9
1.24100	2
1.24467	-5
1.24833	-13
1.25200	-18
1.25567	-21
1.25933	-19
1.26300	-12
1.26667	-5
1.27033	-1
1.27400	1
1.27767	2
1.28133	-1
1.28500	-4
1.28867	-5
1.29233	-5
1.29600	-6
1.29967	-10
1.30333	-11
1.30700	-12
1.31067	-10
1.31433	-4
1.31800	3
1.32167	12
1.32533	19
1.32900	21
1.33267	20
1.33633	12
1.34000	-0
1.34367	-11
1.34733	-16
1.35100	-17
1.35467	-18
1.35833	-22
1.36200	-26
1.36567	-30
1.36933	-34
1.37300	-32
1.37667	-27
1.38033	-24
1.38400	-20
1.38767	-21
1.39133	-25
1.39500	-28
1.39867	-32
1.40233	-31
1.40600	-25
1.40967	-18
1.41333	-9
1.41700	-2
1.42067	-2
1.42433	-3
1.42800	-7
1.43167	-15
1.43533	-19
1.43900	-11
1.44267	31
1.44633	189
1.45000	703
1.45367	2049
1.45733	4510
1.46100	7666
1.46467	10784
1.46833	13358
1.47200	15152
1.47567	16019
1.47933	15812
1.48300	14515
1.48667	12387
1.49033	9878
1.49400	7436
1.49767	5347
1.50133	3709
1.50500	2498
1.50867	1634
1.51233	1034
1.51600	631
1.51967	365
1.52333	188
1.52700	71
1.53067	-7
1.53433	-54
1.53800	-72
1.54167	-41
1.54533	87
1.54900	352
1.55267	723
1.55633	1120
1.56000	1471
1.56367	1739
1.56733	1898
1.57100	1920
1.57467	1785
1.57833	1523
1.58200	1200
1.58567	877
1.58933	594
1.59300	376
1.59667	220
1.60033	113
1.60400	42
1.60767	-5
1.61133	-38
1.61500	-61
1.61867	-71
1.62233	-81
1.62600	-89
1.62967	-92
1.63333	-92
1.63700	-93
1.64067	-92
1.64433	-81
1.64800	-67
1.65167	-56
1.65533	-51
1.65900	-56
1.66267	-70
1.66633	-88
1.67000	-103
1.67367	-107
1.67733	-105
1.68100	-99
1.68467	-95
1.68833	-93
1.69200	-88
1.69567	-84
1.69933	-86
1.70300	-90
1.70667	-94
1.71033	-96
1.71400	-95
1.71767	-95
1.72133	-92
1.72500	-86
1.72867	-80
1.73233	-80
1.73600	-83
1.73967	-83
1.74333	-82
1.74700	-80
1.75067	-76
1.75433	-73
1.75800	-71
1.76167	-73
1.76533	-80
1.76900	-85
1.77267	-83
1.77633	-80
1.78000	-77
1.78367	-74
1.78733	-73
1.79100	-72
1.79467	-72
1.79833	-72
1.80200	-68
1.80567	-63
1.80933	-61
1.81300	-59
1.81667	-57
1.82033	-59
1.82400	-65
1.82767	-68
1.83133	-64
1.83500	-59
1.83867	-59
1.84233	-61
1.84600	-65
1.84967	-68
1.85333	-72
1.85700	-74
1.86067	-74
1.86433	-73
1.86800	-69
1.87167	-66
1.87533	-62
1.87900	-56
1.88267	-55
1.88633	-56
1.89000	-58
1.89367	-52
1.89733	-49
1.90100	-52
1.90467	-59
1.90833	-63
1.91200	-61
1.91567	-54
1.91933	-49
1.92300	-45
1.92667	-47
1.93033	-52
1.93400	-53
1.93767	-48
1.94133	-42
1.94500	-41
1.94867	-40
1.95233	-27
1.95600	109
1.95967	1032
1.96333	5677
1.96700	23330
1.97067	74521
1.97433	188042
1.97800	381705
1.98167	641144
1.98533	921969
1.98900	1172680
1.99267	1353295
1.99633	1439587
2.00000	1423524
2.00367	1314617
2.00733	1138173
2.01100	928359
2.01467	718513
2.01833	532587
2.02200	382004
2.02567	267858
2.02933	185356
2.03300	127658
2.03667	88165
2.04033	61477
2.04400	43537
2.04767	31465
2.05133	23295
2.05500	17700
2.05867	13809
2.06233	11054
2.06600	9061
2.06967	7582
2.07333	6456
2.07700	5583
2.08067	4891
2.08433	4334
2.08800	3880
2.09167	3504
2.09533	3188
2.09900	2913
2.10267	2676
2.10633	2480
2.11000	2313
2.11367	2164
2.11733	2030
2.12100	1911
2.12467	1804
2.12833	1704
2.13200	1609
2.13567	1520
2.13933	1434
2.14300	1357
2.14667	1291
2.15033	1234
2.15400	1178
2.15767	1124
2.16133	1081
2.16500	1044
2.16867	1009
2.17233	974
2.17600	939
2.17967	908
2.18333	884
2.18700	863
2.19067	840
2.19433	815
2.19800	787
2.20167	762
2.20533	739
2.20900	720
2.21267	704
2.21633	692
2.22000	677
2.22367	657
2.22733	634
2.23100	607
2.23467	582
2.23833	565
2.24200	553
2.24567	540
2.24933	525
2.25300	511
2.25667	495
2.26033	479
2.26400	469
2.26767	461
2.27133	456
2.27500	458
2.27867	466
2.28233	470
2.28600	469
2.28967	460
2.29333	446
2.29700	432
2.30067	420
2.30433	413
2.30800	408
2.31167	404
2.31533	397
2.31900	390
2.32267	384
2.32633	381
2.33000	377
2.33367	376
2.33733	375
2.34100	376
2.34467	374
2.34833	367
2.35200	358
2.35567	349
2.35933	340
2.36300	333
2.36667	328
2.37033	321
2.37400	315
2.37767	314
2.38133	315
2.38500	317
2.38867	320
2.39233	323
2.39600	326
2.39967	333
2.40333	338
2.40700	340
2.41067	340
2.41433	339
2.41800	341
2.42167	345
2.42533	345
2.42900	335
2.43267	326
2.43633	318
2.44000	314
2.44367	314
2.44733	315
2.45100	315
2.45467	308
2.45833	299
2.46200	297
2.46567	296
2.46933	293
2.47300	290
2.47667	289
2.48033	291
2.48400	295
2.48767	297
2.49133	297
2.49500	293
2.49867	288
2.50233	285
2.50600	286
2.50967	290
2.51333	290
2.51700	287
2.52067	291
2.52433	299
2.52800	305
2.53167	305
2.53533	301
2.53900	298
2.54267	298
2.54633	299
2.55000	296
2.55367	294
2.55733	294
2.56100	297
2.56467	299
2.56833	298
2.57200	294
2.57567	289
2.57933	286
2.58300	284
2.58667	283
2.59033	282
2.59400	282
2.59767	285
2.60133	289
2.60500	292
2.60867	291
2.61233	289
2.61600	289
2.61967	293
2.62333	299
2.62700	303
2.63067	302
2.63433	296
2.63800	288
2.64167	280
2.64533	273
2.64900	268
2.65267	268
2.65633	274
2.66000	278
2.66367	278
2.66733	278
2.67100	281
2.67467	285
2.67833	285
2.68200	284
2.68567	286
2.68933	287
2.69300	286
2.69667	286
2.70033	283
2.70400	279
2.70767	275
2.71133	273
2.71500	272
2.71867	276
2.72233	283
2.72600	286
2.72967	286
2.73333	282
2.73700	280
2.74067	278
2.74433	278
2.74800	282
2.75167	290
2.75533	298
2.75900	304
2.76267	310
2.76633	312
2.77000	313
2.77367	314
2.77733	313
2.78100	309
2.78467	302
2.78833	297
2.79200	290
2.79567	285
2.79933	284
2.80300	284
2.80667	288
2.81033	298
2.81400	309
2.81767	316
2.82133	317
2.82500	317
2.82867	317
2.83233	317
2.83600	318
2.83967	319
2.84333	317
2.84700	311
2.85067	303
2.85433	302
2.85800	305
2.86167	311
2.86533	318
2.86900	317
2.87267	309
2.87633	300
2.88000	295
2.88367	295
2.88733	297
2.89100	303
2.89467	311
2.89833	325
2.90200	339
2.90567	342
2.90933	338
2.91300	330
2.91667	321
2.92033	316
2.92400	314
2.92767	316
2.93133	318
2.93500	319
2.93867	321
2.94233	320
2.94600	316
2.94967	317
2.95333	325
2.95700	327
2.96067	323
2.96433	319
2.96800	320
2.97167	320
2.97533	317
2.97900	319
2.98267	324
2.98633	329
2.99000	330
2.99367	330
2.99733	332
3.00100	335
3.00467	338
3.00833	339
3.01200	335
3.01567	330
3.01933	327
3.02300	328
3.02667	331
3.03033	338
3.03400	346
3.03767	350
3.04133	348
3.04500	346
3.04867	342
3.05233	339
3.05600	341
3.05967	341
3.06333	339
3.06700	335
3.07067	329
3.07433	325
3.07800	324
3.08167	321
3.08533	321
3.08900	328
3.09267	334
3.09633	333
3.10000	329
3.10367	323
3.10733	316
3.11100	309
3.11467	306
3.11833	308
3.12200	312
3.12567	313
3.12933	313
3.13300	313
3.13667	314
3.14033	316
3.14400	322
3.14767	329
3.15133	331
3.15500	333
3.15867	336
3.16233	342
3.16600	341
3.16967	334
3.17333	327
3.17700	323
3.18067	318
3.18433	312
3.18800	309
3.19167	310
3.19533	315
3.19900	323
3.20267	327
3.20633	323
3.21000	318
3.21367	315
3.21733	314
3.22100	319
3.22467	324
3.22833	326
3.23200	326
3.23567	324
3.23933	322
3.24300	321
3.24667	327
3.25033	335
3.25400	340
3.25767	345
3.26133	343
3.26500	336
3.26867	326
3.27233	321
3.27600	318
3.27967	312
3.28333	303
3.28700	298
3.29067	303
3.29433	312
3.29800	317
3.30167	310
3.30533	303
3.30900	302
3.31267	304
3.31633	304
3.32000	302
3.32367	299
3.32733	301
3.33100	305
3.33467	308
3.33833	314
3.34200	318
3.34567	318
3.34933	316
3.35300	314
3.35667	317
3.36033	320
3.36400	322
3.36767	322
3.37133	321
3.37500	317
3.37867	313
3.38233	314
3.38600	318
3.38967	321
3.39333	319
3.39700	310
3.40067	301
3.40433	295
3.40800	292
3.41167	293
3.41533	299
3.41900	309
3.42267	315
3.42633	315
3.43000	313
3.43367	310
3.43733	310
3.44100	308
3.44467	307
3.44833	310
3.45200	315
3.45567	313
3.45933	307
3.46300	303
3.46667	303
3.47033	299
3.47400	294
3.47767	296
3.48133	299
3.48500	304
3.48867	305
3.49233	304
3.49600	303
3.49967	302
3.50333	299
3.50700	296
3.51067	290
3.51433	281
3.51800	280
3.52167	281
3.52533	279
3.52900	281
3.53267	285
3.53633	287
3.54000	288
3.54367	288
3.54733	289
3.55100	291
3.55467	294
3.55833	295
3.56200	295
3.56567	292
3.56933	290
3.57300	284
3.57667	282
3.58033	283
3.58400	285
3.58767	289
3.59133	292
3.59500	295
3.59867	298
3.60233	300
3.60600	302
3.60967	301
3.61333	300
3.61700	300
3.62067	300
3.62433	299
3.62800	294
3.63167	288
3.63533	282
3.63900	281
3.64267	288
3.64633	293
3.65000	290
3.65367	284
3.65733	281
3.66100	274
3.66467	267
3.66833	264
3.67200	267
3.67567	275
3.67933	279
3.68300	278
3.68667	272
3.69033	268
3.69400	268
3.69767	268
3.70133	266
3.70500	266
3.70867	270
3.71233	274
3.71600	276
3.71967	277
3.72333	274
3.72700	267
3.73067	262
3.73433	259
3.73800	263
3.74167	270
3.74533	277
3.74900	278
3.75267	280
3.75633	279
3.76000	279
3.76367	278
3.76733	276
3.77100	275
3.77467	271
3.77833	263
3.78200	262
3.78567	267
3.78933	272
3.79300	276
3.79667	274
3.80033	274
3.80400	280
3.80767	286
3.81133	287
3.81500	283
3.81867	279
3.82233	275
3.82600	269
3.82967	264
3.83333	260
3.83700	257
3.84067	257
3.84433	262
3.84800	267
3.85167	272
3.85533	274
3.85900	275
3.86267	274
3.86633	267
3.87000	256
3.87367	246
3.87733	242
3.88100	244
3.88467	248
3.88833	251
3.89200	250
3.89567	251
3.89933	249
3.90300	249
3.90667	247
3.91033	240
3.91400	233
3.91767	230
3.92133	236
3.92500	249
3.92867	265
3.93233	274
3.93600	271
3.93967	257
3.94333	241
3.94700	230
3.95067	227
3.95433	227
3.95800	228
3.96167	229
3.96533	229
3.96900	226
3.97267	223
3.97633	223
3.98000	229
3.98367	237
3.98733	241
3.99100	240
3.99467	237
3.99833	236

[Chromatogram (Ch2)]
Interval(msec)	220
# of Points	1091
Start Time(min)	0.002
End Time(min)	3.998
R.Time (min)	Intensity
0.00167	-0
0.00533	-0
0.00900	-1
0.01267	-1
0.01633	-1
0.02000	-1
0.02367	-1
0.02733	-2
0.03100	-2
0.03467	-2
0.03833	-2
0.04200	-2
0.04567	-2
0.04933	-2
0.05300	-2
0.05667	-2
0.06033	-1
0.06400	-1
0.06767	-1
0.07133	-1
0.07500	-1
0.07867	-1
0.08233	-1
0.08600	-1
0.08967	-1
0.09333	-1
0.09700	-0
0.10067	-0
0.10433	-0
0.10800	-0
0.11167	0
0.11533	0
0.11900	0
0.12267	0
0.12633	0
0.13000	0
0.13367	0
0.13733	0
0.14100	0
0.14467	1
0.14833	1
0.15200	1
0.15567	1
0.15933	1
0.16300	1
0.16667	1
0.17033	1
0.17400	1
0.17767	1
0.18133	1
0.18500	1
0.18867	1
0.19233	1
0.19600	0
0.19967	0
0.20333	0
0.20700	1
0.21067	1
0.21433	1
0.21800	1
0.22167	1
0.22533	1
0.22900	1
0.23267	1
0.23633	1
0.24000	1
0.24367	1
0.24733	1
0.25100	0
0.25467	1
0.25833	1
0.26200	1
0.26567	1
0.26933	1
0.27300	1
0.27667	1
0.28033	1
0.28400	1
0.28767	1
0.29133	1
0.29500	0
0.29867	0
0.30233	0
0.30600	-0
0.30967	-0
0.31333	-1
0.31700	-0
0.32067	-0
0.32433	-0
0.32800	0
0.33167	0
0.33533	0
0.33900	0
0.34267	0
0.34633	0
0.35000	-0
0.35367	-1
0.35733	-1
0.36100	-1
0.36467	-1
0.36833	-1
0.37200	-2
0.37567	-2
0.37933	-2
0.38300	-2
0.38667	-2
0.39033	-1
0.39400	-1
0.39767	-1
0.40133	-1
0.40500	-1
0.40867	-1
0.41233	-1
0.41600	-0
0.41967	-0
0.42333	-0
0.42700	-0
0.43067	-1
0.43433	-1
0.43800	-1
0.44167	-1
0.44533	-1
0.44900	-1
0.45267	-1
0.45633	-1
0.46000	-1
0.46367	-1
0.46733	-1
0.47100	-1
0.47467	-1
0.47833	-2
0.48200	-1
0.48567	-1
0.48933	-1
0.49300	-1
0.49667	-0
0.50033	-0
0.50400	0
0.50767	0
0.51133	0
0.51500	0
0.51867	-0
0.52233	-0
0.52600	-0
0.52967	-1
0.53333	-1
0.53700	-1
0.54067	-1
0.54433	-1
0.54800	-1
0.55167	-1
0.55533	-1
0.55900	-1
0.56267	-1
0.56633	-0
0.57000	-0
0.57367	-0
0.57733	-0
0.58100	-0
0.58467	-0
0.58833	-0
0.59200	-0
0.59567	-1
0.59933	-1
0.60300	-2
0.60667	-2
0.61033	-2
0.61400	-2
0.61767	-2
0.62133	-2
0.62500	-2
0.62867	-2
0.63233	-2
0.63600	-3
0.63967	-3
0.64333	-3
0.64700	-3
0.65067	-3
0.65433	-3
0.65800	-2
0.66167	-2
0.66533	-2
0.66900	-2
0.67267	-2
0.67633	-2
0.68000	-2
0.68367	-2
0.68733	-1
0.69100	-1
0.69467	-1
0.69833	-1
0.70200	-1
0.70567	-2
0.70933	-2
0.71300	-2
0.71667	-2
0.72033	-2
0.72400	-2
0.72767	-2
0.73133	-1
0.73500	-1
0.73867	-1
0.74233	-1
0.74600	-1
0.74967	-1
0.75333	-1
0.75700	-1
0.76067	-1
0.76433	-1
0.76800	-1
0.77167	-1
0.77533	-1
0.77900	-1
0.78267	-1
0.78633	-1
0.79000	-0
0.79367	-0
0.79733	-0
0.80100	-0
0.80467	-0
0.80833	-0
0.81200	-0
0.81567	-0
0.81933	-0
0.82300	-0
0.82667	-0
0.83033	-0
0.83400	-0
0.83767	-0
0.84133	-0
0.84500	-0
0.84867	-1
0.85233	-1
0.85600	-1
0.85967	-1
0.86333	-1
0.86700	-1
0.87067	-1
0.87433	-1
0.87800	-1
0.88167	-2
0.88533	-2
0.88900	-2
0.89267	-2
0.89633	-2
0.90000	-3
0.90367	-3
0.90733	-3
0.91100	-3
0.91467	-3
0.91833	-4
0.92200	-4
0.92567	-4
0.92933	-4
0.93300	-4
0.93667	-4
0.94033	-4
0.94400	-4
0.94767	-3
0.95133	-3
0.95500	-3
0.95867	-3
0.96233	-4
0.96600	-4
0.96967	-4
0.97333	-4
0.97700	-4
0.98067	-4
0.98433	-4
0.98800	-3
0.99167	-3
0.99533	-3
0.99900	-3
1.00267	-3
1.00633	-3
1.01000	-3
1.01367	-3
1.01733	-3
1.02100	-3
1.02467	-3
1.02833	-3
1.03200	-3
1.03567	-3
1.03933	-3
1.04300	-3
1.04667	-3
1.05033	-3
1.05400	-3
1.05767	-3
1.06133	-3
1.06500	-3
1.06867	-3
1.07233	-3
1.07600	-4
1.07967	-4
1.08333	-3
1.08700	-3
1.09067	-3
1.09433	-3
1.09800	-3
1.10167	-3
1.10533	-3
1.10900	-3
1.11267	-2
1.11633	-2
1.12000	-2
1.12367	-2
1.12733	-1
1.13100	-1
1.13467	-1
1.13833	-2
1.14200	-2
1.14567	-2
1.14933	-2
1.15300	-2
1.15667	-2
1.16033	-2
1.16400	-2
1.16767	-2
1.17133	-2
1.17500	-2
1.17867	-2
1.18233	-2
1.18600	-2
1.18967	-2
1.19333	-2
1.19700	-2
1.20067	-3
1.20433	-3
1.20800	-3
1.21167	-3
1.21533	-3
1.21900	-3
1.22267	-3
1.22633	-3
1.23000	-3
1.23367	-3
1.23733	-3
1.24100	-3
1.24467	-3
1.24833	-2
1.25200	-2
1.25567	-2
1.25933	-2
1.26300	-2
1.26667	-2
1.27033	-2
1.27400	-2
1.27767	-3
1.28133	-3
1.28500	-3
1.28867	-3
1.29233	-3
1.29600	-3
1.29967	-3
1.30333	-3
1.30700	-3
1.31067	-3
1.31433	-3
1.31800	-3
1.32167	-3
1.32533	-3
1.32900	-3
1.33267	-3
1.33633	-3
1.34000	-3
1.34367	-2
1.34733	-2
1.35100	-2
1.35467	-2
1.35833	-2
1.36200	-2
1.36567	-2
1.36933	-2
1.37300	-2
1.37667	-2
1.38033	-3
1.38400	-3
1.38767	-3
1.39133	-4
1.39500	-4
1.39867	-4
1.40233	-4
1.40600	-4
1.40967	-4
1.41333	-4
1.41700	-4
1.42067	-4
1.42433	-4
1.42800	-4
1.43167	-4
1.43533	-4
1.43900	-4
1.44267	-4
1.44633	-4
1.45000	-4
1.45367	-4
1.45733	-4
1.46100	-4
1.46467	-4
1.46833	-4
1.47200	-4
1.47567	-4
1.47933	-4
1.48300	-3
1.48667	-3
1.49033	-3
1.49400	-3
1.49767	-3
1.50133	-3
1.50500	-3
1.50867	-3
1.51233	-3
1.51600	-2
1.51967	-2
1.52333	-2
1.52700	-2
1.53067	-2
1.53433	-3
1.53800	-3
1.54167	-3
1.54533	-3
1.54900	-3
1.55267	-3
1.55633	-3
1.56000	-3
1.56367	-3
1.56733	-3
1.57100	-3
1.57467	-3
1.57833	-3
1.58200	-3
1.58567	-3
1.58933	-3
1.59300	-3
1.59667	-4
1.60033	-5
1.60400	-6
1.60767	-7
1.61133	-9
1.61500	-11
1.61867	-13
1.62233	-16
1.62600	-19
1.62967	-22
1.63333	-25
1.63700	-28
1.64067	-32
1.64433	-35
1.64800	-39
1.65167	-42
1.65533	-46
1.65900	-49
1.66267	-53
1.66633	-57
1.67000	-61
1.67367	-65
1.67733	-70
1.68100	-75
1.68467	-80
1.68833	-84
1.69200	-88
1.69567	-92
1.69933	-95
1.70300	-97
1.70667	-99
1.71033	-101
1.71400	-102
1.71767	-103
1.72133	-104
1.72500	-105
1.72867	-106
1.73233	-107
1.73600	-108
1.73967	-109
1.74333	-110
1.74700	-110
1.75067	-110
1.75433	-109
1.75800	-109
1.76167	-108
1.76533	-108
1.76900	-107
1.77267	-106
1.77633	-106
1.78000	-106
1.78367	-107
1.78733	-107
1.79100	-108
1.79467	-110
1.79833	-111
1.80200	-112
1.80567	-113
1.80933	-114
1.81300	-114
1.81667	-115
1.82033	-115
1.82400	-115
1.82767	-115
1.83133	-115
1.83500	-115
1.83867	-115
1.84233	-115
1.84600	-115
1.84967	-115
1.85333	-114
1.85700	-114
1.86067	-114
1.86433	-114
1.86800	-115
1.87167	-115
1.87533	-115
1.87900	-115
1.88267	-115
1.88633	-115
1.89000	-115
1.89367	-115
1.89733	-115
1.90100	-116
1.90467	-116
1.90833	-116
1.91200	-116
1.91567	-115
1.91933	-114
1.92300	-114
1.92667	-113
1.93033	-112
1.93400	-111
1.93767	-111
1.94133	-110
1.94500	-109
1.94867	-109
1.95233	-109
1.95600	-109
1.95967	-109
1.96333	-109
1.96700	-109
1.97067	-109
1.97433	-109
1.97800	-109
1.98167	-109
1.98533	-108
1.98900	-108
1.99267	-108
1.99633	-108
2.00000	-107
2.00367	-107
2.00733	-107
2.01100	-107
2.01467	-107
2.01833	-107
2.02200	-107
2.02567	-107
2.02933	-106
2.03300	-106
2.03667	-105
2.04033	-105
2.04400	-104
2.04767	-104
2.05133	-104
2.05500	-103
2.05867	-102
2.06233	-102
2.06600	-101
2.06967	-101
2.07333	-100
2.07700	-100
2.08067	-100
2.08433	-101
2.08800	-101
2.09167	-101
2.09533	-101
2.09900	-100
2.10267	-100
2.10633	-99
2.11000	-99
2.11367	-99
2.11733	-99
2.12100	-99
2.12467	-99
2.12833	-98
2.13200	-98
2.13567	-98
2.13933	-97
2.14300	-97
2.14667	-97
2.15033	-96
2.15400	-96
2.15767	-96
2.16133	-96
2.16500	-95
2.16867	-95
2.17233	-95
2.17600	-94
2.17967	-94
2.18333	-93
2.18700	-93
2.19067	-92
2.19433	-92
2.19800	-92
2.20167	-91
2.20533	-91
2.20900	-91
2.21267	-90
2.21633	-90
2.22000	-90
2.22367	-90
2.22733	-90
2.23100	-90
2.23467	-90
2.23833	-90
2.24200	-89
2.24567	-88
2.24933	-88
2.25300	-88
2.25667	-88
2.26033	-88
2.26400	-88
2.26767	-88
2.27133	-87
2.27500	-87
2.27867	-86
2.28233	-86
2.28600	-86
2.28967	-85
2.29333	-85
2.29700	-84
2.30067	-84
2.30433	-84
2.30800	-83
2.31167	-83
2.31533	-83
2.31900	-82
2.32267	-82
2.32633	-82
2.33000	-81
2.33367	-80
2.33733	-80
2.34100	-79
2.34467	-79
2.34833	-78
2.35200	-77
2.35567	-76
2.35933	-74
2.36300	-73
2.36667	-71
2.37033	-69
2.37400	-66
2.37767	-63
2.38133	-60
2.38500	-56
2.38867	-52
2.39233	-48
2.39600	-44
2.39967	-40
2.40333	-35
2.40700	-31
2.41067	-27
2.41433	-23
2.41800	-19
2.42167	-16
2.42533	-13
2.42900	-11
2.43267	-9
2.43633	-8
2.44000	-7
2.44367	-6
2.44733	-5
2.45100	-5
2.45467	-4
2.45833	-4
2.46200	-3
2.46567	-3
2.46933	-2
2.47300	-2
2.47667	-2
2.48033	-1
2.48400	-0
2.48767	1
2.49133	2
2.49500	4
2.49867	5
2.50233	5
2.50600	5
2.50967	5
2.51333	6
2.51700	6
2.52067	7
2.52433	8
2.52800	9
2.53167	10
2.53533	10
2.53900	11
2.54267	11
2.54633	12
2.55000	12
2.55367	13
2.55733	13
2.56100	14
2.56467	14
2.56833	14
2.57200	14
2.57567	14
2.57933	14
2.58300	14
2.58667	15
2.59033	15
2.59400	15
2.59767	15
2.60133	15
2.60500	15
2.60867	14
2.61233	14
2.61600	14
2.61967	14
2.62333	13
2.62700	13
2.63067	13
2.63433	12
2.63800	12
2.64167	12
2.64533	12
2.64900	13
2.65267	14
2.65633	15
2.66000	16
2.66367	17
2.66733	17
2.67100	18
2.67467	18
2.67833	18
2.68200	18
2.68567	18
2.68933	17
2.69300	17
2.69667	17
2.70033	18
2.70400	18
2.70767	19
2.71133	19
2.71500	20
2.71867	20
2.72233	20
2.72600	20
2.72967	21
2.73333	21
2.73700	22
2.74067	22
2.74433	23
2.74800	23
2.75167	24
2.75533	24
2.75900	24
2.76267	25
2.76633	25
2.77000	25
2.77367	25
2.77733	25
2.78100	24
2.78467	24
2.78833	24
2.79200	23
2.79567	23
2.79933	23
2.80300	23
2.80667	23
2.81033	23
2.81400	23
2.81767	23
2.82133	23
2.82500	23
2.82867	23
2.83233	24
2.83600	24
2.83967	24
2.84333	23
2.84700	21
2.85067	17
2.85433	11
2.85800	2
2.86167	-11
2.86533	-27
2.86900	-48
2.87267	-73
2.87633	-102
2.88000	-135
2.88367	-173
2.88733	-215
2.89100	-259
2.89467	-307
2.89833	-357
2.90200	-410
2.90567	-464
2.90933	-518
2.91300	-573
2.91667	-629
2.92033	-683
2.92400	-737
2.92767	-789
2.93133	-840
2.93500	-892
2.93867	-949
2.94233	-1007
2.94600	-1058
2.94967	-1090
2.95333	-1098
2.95700	-1080
2.96067	-1040
2.96433	-981
2.96800	-910
2.97167	-832
2.97533	-751
2.97900	-672
2.98267	-595
2.98633	-523
2.99000	-457
2.99367	-397
2.99733	-343
3.00100	-295
3.00467	-253
3.00833	-216
3.01200	-184
3.01567	-157
3.01933	-133
3.02300	-112
3.02667	-94
3.03033	-79
3.03400	-65
3.03767	-54
3.04133	-44
3.04500	-36
3.04867	-29
3.05233	-23
3.05600	-18
3.05967	-14
3.06333	-10
3.06700	-7
3.07067	-4
3.07433	-1
3.07800	1
3.08167	3
3.08533	5
3.08900	6
3.09267	8
3.09633	9
3.10000	10
3.10367	10
3.10733	11
3.11100	12
3.11467	12
3.11833	13
3.12200	13
3.12567	13
3.12933	14
3.13300	14
3.13667	14
3.14033	14
3.14400	14
3.14767	15
3.15133	15
3.15500	15
3.15867	15
3.16233	15
3.16600	15
3.16967	16
3.17333	16
3.17700	16
3.18067	17
3.18433	17
3.18800	18
3.19167	18
3.19533	18
3.19900	18
3.20267	19
3.20633	19
3.21000	19
3.21367	19
3.21733	19
3.22100	19
3.22467	19
3.22833	19
3.23200	19
3.23567	19
3.23933	19
3.24300	19
3.24667	19
3.25033	20
3.25400	20
3.25767	20
3.26133	20
3.26500	21
3.26867	21
3.27233	21
3.27600	22
3.27967	22
3.28333	22
3.28700	22
3.29067	22
3.29433	22
3.29800	22
3.30167	22
3.30533	23
3.30900	23
3.31267	23
3.31633	24
3.32000	24
3.32367	24
3.32733	24
3.33100	25
3.33467	25
3.33833	25
3.34200	25
3.34567	25
3.34933	25
3.35300	25
3.35667	25
3.36033	25
3.36400	25
3.36767	25
3.37133	25
3.37500	25
3.37867	25
3.38233	25
3.38600	25
3.38967	25
3.39333	25
3.39700	25
3.40067	25
3.40433	25
3.40800	25
3.41167	25
3.41533	25
3.41900	25
3.42267	25
3.42633	25
3.43000	25
3.43367	25
3.43733	25
3.44100	25
3.44467	25
3.44833	25
3.45200	25
3.45567	25
3.45933	24
3.46300	24
3.46667	24
3.47033	24
3.47400	24
3.47767	24
3.48133	24
3.48500	25
3.48867	25
3.49233	25
3.49600	25
3.49967	25
3.50333	25
3.50700	25
3.51067	25
3.51433	24
3.51800	24
3.52167	24
3.52533	24
3.52900	25
3.53267	25
3.53633	25
3.54000	25
3.54367	25
3.54733	25
3.55100	25
3.55467	25
3.55833	25
3.56200	25
3.56567	25
3.56933	26
3.57300	26
3.57667	26
3.58033	26
3.58400	25
3.58767	25
3.59133	25
3.59500	25
3.59867	25
3.60233	25
3.60600	25
3.60967	25
3.61333	26
3.61700	26
3.62067	26
3.62433	26
3.62800	26
3.63167	26
3.63533	27
3.63900	26
3.64267	26
3.64633	26
3.65000	25
3.65367	25
3.65733	25
3.66100	24
3.66467	24
3.66833	24
3.67200	24
3.67567	24
3.67933	24
3.68300	24
3.68667	24
3.69033	24
3.69400	24
3.69767	24
3.70133	24
3.70500	24
3.70867	24
3.71233	24
3.71600	24
3.71967	24
3.72333	25
3.72700	24
3.73067	24
3.73433	24
3.73800	24
3.74167	24
3.74533	24
3.74900	24
3.75267	24
3.75633	24
3.76000	25
3.76367	25
3.76733	25
3.77100	25
3.77467	25
3.77833	25
3.78200	25
3.78567	25
3.78933	24
3.79300	24
3.79667	24
3.80033	24
3.80400	24
3.80767	24
3.81133	24
3.81500	24
3.81867	24
3.82233	24
3.82600	25
3.82967	25
3.83333	24
3.83700	24
3.84067	24
3.84433	24
3.84800	24
3.85167	24
3.85533	24
3.85900	24
3.86267	24
3.86633	24
3.87000	24
3.87367	25
3.87733	25
3.88100	25
3.88467	25
3.88833	25
3.89200	25
3.89567	25
3.89933	25
3.90300	25
3.90667	25
3.91033	25
3.91400	25
3.91767	24
3.92133	24
3.92500	24
3.92867	24
3.93233	24
3.93600	24
3.93967	24
3.94333	24
3.94700	24
3.95067	24
3.95433	24
3.95800	24
3.96167	24
3.96533	24
3.96900	25
3.97267	25
3.97633	25
3.98000	24
3.98367	24
3.98733	24
3.99100	24
3.99467	24
3.99833	25

[Chromatogram (Ch3)]
Interval(msec)	220
# of Points	1091
Start Time(min)	0.002
End Time(min)	3.998
R.Time (min)	Intensity
0.00167	0
0.00533	1
0.00900	2
0.01267	5
0.01633	5
0.02000	3
0.02367	2
0.02733	2
0.03100	2
0.03467	1
0.03833	-1
0.04200	-2
0.04567	-2
0.04933	-1
0.05300	-2
0.05667	-2
0.06033	-2
0.06400	-2
0.06767	-3
0.07133	-3
0.07500	-1
0.07867	-1
0.08233	-1
0.08600	-1
0.08967	-3
0.09333	-2
0.09700	-2
0.10067	-3
0.10433	-4
0.10800	-4
0.11167	-4
0.11533	-1
0.11900	-1
0.12267	-1
0.12633	-2
0.13000	-3
0.13367	-3
0.13733	-4
0.14100	-3
0.14467	-2
0.14833	-1
0.15200	0
0.15567	0
0.15933	-1
0.16300	-3
0.16667	-3
0.17033	-2
0.17400	-3
0.17767	-4
0.18133	-5
0.18500	-5
0.18867	-5
0.19233	-6
0.19600	-7
0.19967	-7
0.20333	-6
0.20700	-7
0.21067	-8
0.21433	-9
0.21800	-7
0.22167	-6
0.22533	-4
0.22900	-5
0.23267	-7
0.23633	-10
0.24000	-13
0.24367	-13
0.24733	-13
0.25100	-12
0.25467	-13
0.25833	-15
0.26200	-17
0.26567	-20
0.26933	-21
0.27300	-20
0.27667	-18
0.28033	-17
0.28400	-18
0.28767	-19
0.29133	-19
0.29500	-19
0.29867	-18
0.30233	-18
0.30600	-18
0.30967	-18
0.31333	-16
0.31700	-13
0.32067	-13
0.32433	-14
0.32800	-16
0.33167	-18
0.33533	-19
0.33900	-17
0.34267	-14
0.34633	-14
0.35000	-14
0.35367	-16
0.35733	-17
0.36100	-17
0.36467	-16
0.36833	-16
0.37200	-17
0.37567	-17
0.37933	-17
0.38300	-19
0.38667	-17
0.39033	-17
0.39400	-16
0.39767	-14
0.40133	-14
0.40500	-16
0.40867	-16
0.41233	-17
0.41600	-18
0.41967	-21
0.42333	-21
0.42700	-23
0.43067	-24
0.43433	-25
0.43800	-25
0.44167	-23
0.44533	-19
0.44900	-17
0.45267	-16
0.45633	-16
0.46000	-17
0.46367	-17
0.46733	-18
0.47100	-19
0.47467	-18
0.47833	-18
0.48200	-19
0.48567	-21
0.48933	-21
0.49300	-22
0.49667	-23
0.50033	-22
0.50400	-21
0.50767	-21
0.51133	-22
0.51500	-23
0.51867	-23
0.52233	-24
0.52600	-23
0.52967	-21
0.53333	-21
0.53700	-22
0.54067	-23
0.54433	-24
0.54800	-24
0.55167	-24
0.55533	-23
0.55900	-22
0.56267	-22
0.56633	-22
0.57000	-21
0.57367	-17
0.57733	-13
0.58100	-12
0.58467	-13
0.58833	-14
0.59200	-14
0.59567	-14
0.59933	-12
0.60300	-10
0.60667	-8
0.61033	-7
0.61400	-9
0.61767	-12
0.62133	-12
0.62500	-12
0.62867	-12
0.63233	-14
0.63600	-15
0.63967	-15
0.64333	-14
0.64700	-13
0.65067	-12
0.65433	-10
0.65800	-8
0.66167	-10
0.66533	-12
0.66900	-13
0.67267	-14
0.67633	-13
0.68000	-12
0.68367	-12
0.68733	-10
0.69100	-9
0.69467	-6
0.69833	-5
0.70200	-6
0.70567	-8
0.70933	-10
0.71300	-9
0.71667	-8
0.72033	-8
0.72400	-10
0.72767	-12
0.73133	-12
0.73500	-10
0.73867	-8
0.74233	-7
0.74600	-7
0.74967	-6
0.75333	-7
0.75700	-8
0.76067	-7
0.76433	-7
0.76800	-7
0.77167	-7
0.77533	-7
0.77900	-5
0.78267	-4
0.78633	-5
0.79000	-5
0.79367	-7
0.79733	-8
0.80100	-8
0.80467	-8
0.80833	-9
0.81200	-9
0.81567	-11
0.81933	-11
0.82300	-10
0.82667	-9
0.83033	-8
0.83400	-8
0.83767	-7
0.84133	-5
0.84500	-7
0.84867	-8
0.85233	-9
0.85600	-7
0.85967	-6
0.86333	-5
0.86700	-4
0.87067	-3
0.87433	-2
0.87800	-3
0.88167	-3
0.88533	-4
0.88900	-3
0.89267	-2
0.89633	-4
0.90000	-5
0.90367	-4
0.90733	-2
0.91100	0
0.91467	0
0.91833	-0
0.92200	-1
0.92567	-1
0.92933	-1
0.93300	-1
0.93667	-2
0.94033	-1
0.94400	-2
0.94767	-3
0.95133	-2
0.95500	0
0.95867	1
0.96233	3
0.96600	3
0.96967	1
0.97333	-1
0.97700	-0
0.98067	-0
0.98433	-3
0.98800	-5
0.99167	-4
0.99533	-3
0.99900	-5
1.00267	-6
1.00633	-6
1.01000	-6
1.01367	-6
1.01733	-5
1.02100	-3
1.02467	-1
1.02833	0
1.03200	0
1.03567	0
1.03933	0
1.04300	2
1.04667	2
1.05033	1
1.05400	0
1.05767	-1
1.06133	-2
1.06500	-1
1.06867	0
1.07233	1
1.07600	1
1.07967	1
1.08333	-0
1.08700	0
1.09067	2
1.09433	2
1.09800	1
1.10167	2
1.10533	4
1.10900	5
1.11267	3
1.11633	0
1.12000	-1
1.12367	-2
1.12733	-2
1.13100	-0
1.13467	1
1.13833	2
1.14200	2
1.14567	-0
1.14933	-1
1.15300	-1
1.15667	-1
1.16033	-2
1.16400	-2
1.16767	-3
1.17133	-4
1.17500	-5
1.17867	-5
1.18233	-3
1.18600	-2
1.18967	-1
1.19333	-4
1.19700	-7
1.20067	-8
1.20433	-7
1.20800	-6
1.21167	-6
1.21533	-6
1.21900	-7
1.22267	-5
1.22633	-3
1.23000	-3
1.23367	-3
1.23733	-2
1.24100	-2
1.24467	-3
1.24833	-3
1.25200	-3
1.25567	-3
1.25933	-1
1.26300	2
1.26667	2
1.27033	1
1.27400	1
1.27767	2
1.28133	1
1.28500	-1
1.28867	-2
1.29233	-4
1.29600	-4
1.29967	-4
1.30333	-5
1.30700	-6
1.31067	-8
1.31433	-9
1.31800	-9
1.32167	-8
1.32533	-6
1.32900	-4
1.33267	-4
1.33633	-5
1.34000	-6
1.34367	-5
1.34733	-4
1.35100	-2
1.35467	-0
1.35833	-0
1.36200	-1
1.36567	-2
1.36933	-2
1.37300	-2
1.37667	-4
1.38033	-5
1.38400	-6
1.38767	-6
1.39133	-6
1.39500	-5
1.39867	-5
1.40233	-7
1.40600	-6
1.40967	-2
1.41333	-0
1.41700	-0
1.42067	-1
1.42433	-3
1.42800	-4
1.43167	-4
1.43533	-4
1.43900	-4
1.44267	-3
1.44633	-2
1.45000	-1
1.45367	0
1.45733	1
1.46100	0
1.46467	-0
1.46833	-0
1.47200	1
1.47567	5
1.47933	5
1.48300	4
1.48667	1
1.49033	-1
1.49400	-2
1.49767	-3
1.50133	-3
1.50500	-1
1.50867	1
1.51233	2
1.51600	1
1.51967	1
1.52333	3
1.52700	3
1.53067	-1
1.53433	-3
1.53800	-3
1.54167	-4
1.54533	-3
1.54900	-3
1.55267	-1
1.55633	1
1.56000	1
1.56367	1
1.56733	2
1.57100	2
1.57467	2
1.57833	1
1.58200	1
1.58567	1
1.58933	0
1.59300	-0
1.59667	-1
1.60033	-4
1.60400	-6
1.60767	-5
1.61133	-3
1.61500	-1
1.61867	2
1.62233	5
1.62600	6
1.62967	7
1.63333	9
1.63700	9
1.64067	9
1.64433	10
1.64800	8
1.65167	8
1.65533	7
1.65900	6
1.66267	6
1.66633	7
1.67000	10
1.67367	13
1.67733	16
1.68100	17
1.68467	19
1.68833	18
1.69200	18
1.69567	18
1.69933	19
1.70300	20
1.70667	19
1.71033	19
1.71400	20
1.71767	19
1.72133	21
1.72500	23
1.72867	24
1.73233	24
1.73600	22
1.73967	21
1.74333	23
1.74700	23
1.75067	24
1.75433	25
1.75800	27
1.76167	26
1.76533	25
1.76900	25
1.77267	25
1.77633	25
1.78000	25
1.78367	26
1.78733	30
1.79100	33
1.79467	35
1.79833	36
1.80200	36
1.80567	36
1.80933	37
1.81300	36
1.81667	35
1.82033	35
1.82400	36
1.82767	37
1.83133	39
1.83500	40
1.83867	39
1.84233	38
1.84600	38
1.84967	38
1.85333	39
1.85700	40
1.86067	42
1.86433	43
1.86800	45
1.87167	47
1.87533	48
1.87900	49
1.88267	52
1.88633	51
1.89000	48
1.89367	46
1.89733	47
1.90100	49
1.90467	49
1.90833	50
1.91200	52
1.91567	55
1.91933	55
1.92300	56
1.92667	59
1.93033	61
1.93400	61
1.93767	62
1.94133	63
1.94500	67
1.94867	69
1.95233	67
1.95600	66
1.95967	67
1.96333	70
1.96700	72
1.97067	72
1.97433	73
1.97800	74
1.98167	75
1.98533	74
1.98900	75
1.99267	76
1.99633	76
2.00000	76
2.00367	77
2.00733	79
2.01100	80
2.01467	81
2.01833	84
2.02200	85
2.02567	85
2.02933	87
2.03300	90
2.03667	91
2.04033	90
2.04400	90
2.04767	90
2.05133	91
2.05500	93
2.05867	93
2.06233	94
2.06600	97
2.06967	99
2.07333	100
2.07700	102
2.08067	105
2.08433	107
2.08800	112
2.09167	117
2.09533	120
2.09900	122
2.10267	123
2.10633	123
2.11000	125
2.11367	126
2.11733	128
2.12100	129
2.12467	129
2.12833	131
2.13200	133
2.13567	135
2.13933	135
2.14300	134
2.14667	135
2.15033	138
2.15400	142
2.15767	144
2.16133	145
2.16500	144
2.16867	145
2.17233	147
2.17600	149
2.17967	151
2.18333	154
2.18700	154
2.19067	156
2.19433	157
2.19800	160
2.20167	161
2.20533	161
2.20900	162
2.21267	164
2.21633	168
2.22000	171
2.22367	173
2.22733	174
2.23100	171
2.23467	170
2.23833	169
2.24200	170
2.24567	172
2.24933	176
2.25300	180
2.25667	182
2.26033	182
2.26400	181
2.26767	182
2.27133	184
2.27500	189
2.27867	191
2.28233	191
2.28600	192
2.28967	194
2.29333	197
2.29700	200
2.30067	201
2.30433	202
2.30800	204
2.31167	205
2.31533	206
2.31900	206
2.32267	208
2.32633	207
2.33000	206
2.33367	206
2.33733	209
2.34100	210
2.34467	214
2.34833	218
2.35200	218
2.35567	220
2.35933	220
2.36300	221
2.36667	222
2.37033	224
2.37400	226
2.37767	226
2.38133	224
2.38500	222
2.38867	220
2.39233	220
2.39600	224
2.39967	230
2.40333	233
2.40700	237
2.41067	240
2.41433	241
2.41800	242
2.42167	244
2.42533	247
2.42900	247
2.43267	248
2.43633	249
2.44000	254
2.44367	312
2.44733	467
2.45100	636
2.45467	776
2.45833	852
2.46200	851
2.46567	800
2.46933	735
2.47300	684
2.47667	647
2.48033	617
2.48400	579
2.48767	530
2.49133	477
2.49500	428
2.49867	389
2.50233	361
2.50600	344
2.50967	341
2.51333	349
2.51700	367
2.52067	389
2.52433	408
2.52800	420
2.53167	418
2.53533	402
2.53900	376
2.54267	342
2.54633	309
2.55000	277
2.55367	250
2.55733	228
2.56100	209
2.56467	197
2.56833	188
2.57200	180
2.57567	178
2.57933	176
2.58300	175
2.58667	174
2.59033	172
2.59400	171
2.59767	171
2.60133	172
2.60500	172
2.60867	169
2.61233	164
2.61600	158
2.61967	152
2.62333	143
2.62700	135
2.63067	125
2.63433	115
2.63800	107
2.64167	96
2.64533	85
2.64900	74
2.65267	62
2.65633	50
2.66000	38
2.66367	26
2.66733	17
2.67100	8
2.67467	1
2.67833	-3
2.68200	-6
2.68567	-7
2.68933	-8
2.69300	-8
2.69667	-5
2.70033	-5
2.70400	-4
2.70767	-2
2.71133	0
2.71500	2
2.71867	7
2.72233	13
2.72600	18
2.72967	23
2.73333	28
2.73700	30
2.74067	31
2.74433	33
2.74800	35
2.75167	38
2.75533	40
2.75900	42
2.76267	46
2.76633	49
2.77000	51
2.77367	54
2.77733	58
2.78100	65
2.78467	73
2.78833	78
2.79200	84
2.79567	91
2.79933	97
2.80300	103
2.80667	104
2.81033	107
2.81400	113
2.81767	123
2.82133	132
2.82500	148
2.82867	186
2.83233	259
2.83600	382
2.83967	581
2.84333	873
2.84700	1269
2.85067	1767
2.85433	2343
2.85800	2958
2.86167	3564
2.86533	4111
2.86900	4557
2.87267	4871
2.87633	5037
2.88000	5056
2.88367	4944
2.88733	4728
2.89100	4440
2.89467	4106
2.89833	3749
2.90200	3388
2.90567	3038
2.90933	2709
2.91300	2405
2.91667	2128
2.92033	1878
2.92400	1653
2.92767	1453
2.93133	1276
2.93500	1121
2.93867	984
2.94233	865
2.94600	760
2.94967	670
2.95333	593
2.95700	526
2.96067	466
2.96433	416
2.96800	374
2.97167	337
2.97533	303
2.97900	275
2.98267	249
2.98633	224
2.99000	204
2.99367	187
2.99733	174
3.00100	161
3.00467	151
3.00833	140
3.01200	131
3.01567	126
3.01933	119
3.02300	115
3.02667	111
3.03033	108
3.03400	104
3.03767	102
3.04133	99
3.04500	86
3.04867	45
3.05233	-0
3.05600	-20
3.05967	-14
3.06333	12
3.06700	50
3.07067	97
3.07433	151
3.07800	208
3.08167	268
3.08533	326
3.08900	379
3.09267	426
3.09633	467
3.10000	501
3.10367	530
3.10733	557
3.11100	578
3.11467	596
3.11833	609
3.12200	623
3.12567	639
3.12933	650
3.13300	657
3.13667	662
3.14033	667
3.14400	671
3.14767	675
3.15133	680
3.15500	685
3.15867	688
3.16233	693
3.16600	698
3.16967	702
3.17333	707
3.17700	711
3.18067	715
3.18433	719
3.18800	723
3.19167	725
3.19533	728
3.19900	732
3.20267	735
3.20633	739
3.21000	745
3.21367	754
3.21733	763
3.22100	769
3.22467	774
3.22833	777
3.23200	779
3.23567	783
3.23933	789
3.24300	796
3.24667	803
3.25033	809
3.25400	813
3.25767	817
3.26133	824
3.26500	829
3.26867	833
3.27233	837
3.27600	841
3.27967	846
3.28333	853
3.28700	858
3.29067	861
3.29433	864
3.29800	866
3.30167	870
3.30533	871
3.30900	872
3.31267	872
3.31633	873
3.32000	873
3.32367	874
3.32733	875
3.33100	874
3.33467	871
3.33833	871
3.34200	870
3.34567	871
3.34933	871
3.35300	868
3.35667	867
3.36033	866
3.36400	863
3.36767	859
3.37133	856
3.37500	851
3.37867	847
3.38233	840
3.38600	834
3.38967	830
3.39333	827
3.39700	824
3.40067	820
3.40433	815
3.40800	810
3.41167	805
3.41533	801
3.41900	799
3.42267	796
3.42633	793
3.43000	789
3.43367	785
3.43733	784
3.44100	782
3.44467	779
3.44833	775
3.45200	773
3.45567	773
3.45933	774
3.46300	773
3.46667	770
3.47033	767
3.47400	765
3.47767	764
3.48133	763
3.48500	758
3.48867	753
3.49233	751
3.49600	750
3.49967	751
3.50333	751
3.50700	749
3.51067	749
3.51433	749
3.51800	749
3.52167	749
3.52533	747
3.52900	745
3.53267	743
3.53633	743
3.54000	742
3.54367	740
3.54733	736
3.55100	736
3.55467	737
3.55833	736
3.56200	733
3.56567	732
3.56933	733
3.57300	733
3.57667	730
3.58033	728
3.58400	726
3.58767	724
3.59133	723
3.59500	719
3.59867	715
3.60233	713
3.60600	713
3.60967	714
3.61333	714
3.61700	714
3.62067	712
3.62433	708
3.62800	705
3.63167	703
3.63533	700
3.63900	698
3.64267	695
3.64633	694
3.65000	692
3.65367	690
3.65733	690
3.66100	688
3.66467	685
3.66833	685
3.67200	682
3.67567	678
3.67933	676
3.68300	674
3.68667	673
3.69033	669
3.69400	664
3.69767	662
3.70133	660
3.70500	660
3.70867	661
3.71233	660
3.71600	657
3.71967	653
3.72333	651
3.72700	648
3.73067	646
3.73433	644
3.73800	643
3.74167	642
3.74533	639
3.74900	634
3.75267	629
3.75633	627
3.76000	624
3.76367	620
3.76733	618
3.77100	619
3.77467	621
3.77833	621
3.78200	620
3.78567	617
3.78933	615
3.79300	614
3.79667	611
3.80033	607
3.80400	604
3.80767	600
3.81133	600
3.81500	600
3.81867	598
3.82233	596
3.82600	595
3.82967	593
3.83333	590
3.83700	588
3.84067	585
3.84433	582
3.84800	580
3.85167	578
3.85533	578
3.85900	576
3.86267	575
3.86633	573
3.87000	570
3.87367	568
3.87733	567
3.88100	567
3.88467	565
3.88833	561
3.89200	559
3.89567	556
3.89933	555
3.90300	553
3.90667	552
3.91033	551
3.91400	550
3.91767	547
3.92133	546
3.92500	545
3.92867	542
3.93233	537
3.93600	537
3.93967	537
3.94333	536
3.94700	534
3.95067	533
3.95433	531
3.95800	528
3.96167	527
3.96533	526
3.96900	525
3.97267	523
3.97633	523
3.98000	523
3.98367	524
3.98733	525
3.99100	522
3.99467	520
3.99833	518

[Status Trace (Column Oven Temperature)]
Interval(msec)	1000
# of Points	240
Start Time(min)	0.008
End Time(min)	3.991
Intensity Units	
Intensity Multiplier	1
R.Time (min)	Intensity
0.00780	35.06
0.02447	35.07
0.04113	35.07
0.05780	35.06
0.07447	35.06
0.09113	35.06
0.10780	35.06
0.12447	35.06
0.14113	35.05
0.15780	35.06
0.17447	35.05
0.19113	35.05
0.20780	35.04
0.22447	35.03
0.24113	35.02
0.25780	35.01
0.27447	35.01
0.29113	35.01
0.30780	35.01
0.32447	35.02
0.34113	35.02
0.35780	35.02
0.37447	35.03
0.39113	35.03
0.40780	35.04
0.42447	35.03
0.44113	35.02
0.45780	35.02
0.47447	35.03
0.49113	35.02
0.50780	35.00
0.52447	35.00
0.54113	35.00
0.55780	34.99
0.57447	34.99
0.59113	35.00
0.60780	35.00
0.62447	35.01
0.64113	35.01
0.65780	35.02
0.67447	35.01
0.69113	35.02
0.70780	35.02
0.72447	35.01
0.74113	35.02
0.75780	35.02
0.77447	35.01
0.79113	35.00
0.80780	34.99
0.82447	34.99
0.84113	34.98
0.85780	34.98
0.87447	34.98
0.89113	34.98
0.90780	34.99
0.92447	35.00
0.94113	34.99
0.95780	35.00
0.97447	35.00
0.99113	35.00
1.00780	35.00
1.02447	34.99
1.04113	34.99
1.05780	35.00
1.07447	35.01
1.09113	35.01
1.10780	35.01
1.12447	35.00
1.14113	34.99
1.15780	34.99
1.17447	34.99
1.19113	34.99
1.20780	34.99
1.22447	34.99
1.24113	34.99
1.25780	34.99
1.27447	34.99
1.29113	35.00
1.30780	35.00
1.32447	35.00
1.34113	34.99
1.35780	34.99
1.37447	34.99
1.39113	35.00
1.40780	35.00
1.42447	35.01
1.44113	35.01
1.45780	35.01
1.47447	35.02
1.49113	35.03
1.50780	35.02
1.52447	35.02
1.54113	35.01
1.55780	35.01
1.57447	35.01
1.59113	35.03
1.60780	35.09
1.62447	35.21
1.64113	35.39
1.65780	35.62
1.67447	35.96
1.69113	36.33
1.70780	36.67
1.72447	37.02
1.74113	37.37
1.75780	37.68
1.77447	37.97
1.79113	38.32
1.80780	38.66
1.82447	39.00
1.84113	39.33
1.85780	39.66
1.87447	39.99
1.89113	40.33
1.90780	40.67
1.92447	40.99
1.94113	41.30
1.95780	41.63
1.97447	41.95
1.99113	42.27
2.00780	42.59
2.02447	42.92
2.04113	43.26
2.05780	43.58
2.07447	43.91
2.09113	44.24
2.10780	44.56
2.12447	44.90
2.14113	45.22
2.15780	45.55
2.17447	45.89
2.19113	46.21
2.20780	46.53
2.22447	46.88
2.24113	47.20
2.25780	47.53
2.27447	47.86
2.29113	48.19
2.30780	48.52
2.32447	48.85
2.34113	49.15
2.35780	49.44
2.37447	49.61
2.39113	49.67
2.40780	49.65
2.42447	49.65
2.44113	49.66
2.45780	49.66
2.47447	49.68
2.49113	49.67
2.50780	49.71
2.52447	49.71
2.54113	49.73
2.55780	49.74
2.57447	49.76
2.59113	49.77
2.60780	49.78
2.62447	49.81
2.64113	49.83
2.65780	49.82
2.67447	49.83
2.69113	49.85
2.70780	49.86
2.72447	49.86
2.74113	49.85
2.75780	49.85
2.77447	49.86
2.79113	49.87
2.80780	49.87
2.82447	49.88
2.84113	49.87
2.85780	49.88
2.87447	49.89
2.89113	49.89
2.90780	49.90
2.92447	49.90
2.94113	49.92
2.95780	49.95
2.97447	49.96
2.99113	49.97
3.00780	49.99
3.02447	49.99
3.04113	50.00
3.05780	50.01
3.07447	50.00
3.09113	50.00
3.10780	50.01
3.12447	50.02
3.14113	50.03
3.15780	50.05
3.17447	50.05
3.19113	50.07
3.20780	50.07
3.22447	50.08
3.24113	50.09
3.25780	50.10
3.27447	50.10
3.29113	50.10
3.30780	50.09
3.32447	50.07
3.34113	50.07
3.35780	50.07
3.37447	50.06
3.39113	50.06
3.40780	50.06
3.42447	50.06
3.44113	50.07
3.45780	50.07
3.47447	50.07
3.49113	50.07
3.50780	50.07
3.52447	50.07
3.54113	50.07
3.55780	50.07
3.57447	50.08
3.59113	50.08
3.60780	50.07
3.62447	50.07
3.64113	50.07
3.65780	50.08
3.67447	50.08
3.69113	50.09
3.70780	50.10
3.72447	50.09
3.74113	50.10
3.75780	50.09
3.77447	50.09
3.79113	50.09
3.80780	50.08
3.82447	50.08
3.84113	50.08
3.85780	50.08
3.87447	50.07
3.89113	50.07
3.90780	50.06
3.92447	50.06
3.94113	50.07
3.95780	50.07
3.97447	50.07
3.99113	50.06

[Status Trace (Injection Unit Temperature)]
Interval(msec)	1000
# of Points	240
Start Time(min)	0.008
End Time(min)	3.991
Intensity Units	
Intensity Multiplier	1
R.Time (min)	Intensity
0.00780	99.97
0.02447	99.98
0.04113	99.98
0.05780	99.97
0.07447	99.98
0.09113	99.98
0.10780	99.97
0.12447	99.98
0.14113	99.98
0.15780	99.98
0.17447	99.97
0.19113	99.98
0.20780	99.97
0.22447	99.98
0.24113	99.98
0.25780	99.98
0.27447	99.98
0.29113	99.98
0.30780	99.98
0.32447	99.98
0.34113	99.98
0.35780	99.98
0.37447	99.98
0.39113	99.98
0.40780	99.98
0.42447	99.98
0.44113	99.98
0.45780	99.98
0.47447	99.99
0.49113	99.98
0.50780	99.98
0.52447	99.98
0.54113	99.99
0.55780	99.99
0.57447	99.99
0.59113	99.98
0.60780	99.99
0.62447	99.99
0.64113	99.98
0.65780	99.98
0.67447	99.98
0.69113	99.98
0.70780	99.98
0.72447	99.98
0.74113	99.99
0.75780	99.98
0.77447	99.99
0.79113	99.99
0.80780	99.99
0.82447	99.99
0.84113	99.98
0.85780	99.98
0.87447	99.99
0.89113	99.99
0.90780	99.98
0.92447	99.99
0.94113	99.99
0.95780	99.98
0.97447	99.99
0.99113	99.98
1.00780	99.98
1.02447	99.98
1.04113	99.99
1.05780	99.99
1.07447	99.98
1.09113	99.98
1.10780	99.98
1.12447	99.98
1.14113	99.98
1.15780	99.99
1.17447	99.98
1.19113	99.98
1.20780	99.99
1.22447	99.98
1.24113	99.98
1.25780	99.98
1.27447	99.98
1.29113	99.98
1.30780	99.98
1.32447	99.98
1.34113	99.99
1.35780	99.99
1.37447	99.98
1.39113	99.98
1.40780	99.98
1.42447	99.98
1.44113	99.98
1.45780	99.98
1.47447	99.98
1.49113	99.98
1.50780	99.99
1.52447	99.99
1.54113	99.98
1.55780	99.99
1.57447	99.98
1.59113	99.98
1.60780	99.99
1.62447	99.98
1.64113	99.98
1.65780	99.99
1.67447	99.98
1.69113	99.98
1.70780	99.98
1.72447	99.98
1.74113	99.98
1.75780	99.99
1.77447	99.98
1.79113	99.98
1.80780	99.98
1.82447	99.97
1.84113	99.98
1.85780	99.98
1.87447	99.98
1.89113	99.98
1.90780	99.98
1.92447	99.98
1.94113	99.97
1.95780	99.97
1.97447	99.98
1.99113	99.97
2.00780	99.97
2.02447	99.97
2.04113	99.98
2.05780	99.97
2.07447	99.97
2.09113	99.97
2.10780	99.97
2.12447	99.97
2.14113	99.97
2.15780	99.97
2.17447	99.97
2.19113	99.97
2.20780	99.97
2.22447	99.97
2.24113	99.97
2.25780	99.97
2.27447	99.97
2.29113	99.97
2.30780	99.97
2.32447	99.97
2.34113	99.97
2.35780	99.97
2.37447	99.97
2.39113	99.97
2.40780	99.97
2.42447	99.96
2.44113	99.97
2.45780	99.97
2.47447	99.97
2.49113	99.97
2.50780	99.97
2.52447	99.98
2.54113	99.97
2.55780	99.97
2.57447	99.98
2.59113	99.97
2.60780	99.97
2.62447	99.98
2.64113	99.98
2.65780	99.98
2.67447	99.99
2.69113	99.99
2.70780	99.98
2.72447	99.98
2.74113	99.99
2.75780	99.99
2.77447	99.99
2.79113	99.99
2.80780	99.99
2.82447	100.00
2.84113	100.00
2.85780	100.00
2.87447	100.00
2.89113	100.00
2.90780	100.00
2.92447	100.00
2.94113	100.01
2.95780	100.01
2.97447	100.01
2.99113	100.01
3.00780	100.01
3.02447	100.01
3.04113	100.01
3.05780	100.02
3.07447	100.02
3.09113	100.02
3.10780	100.02
3.12447	100.02
3.14113	100.02
3.15780	100.02
3.17447	100.02
3.19113	100.02
3.20780	100.03
3.22447	100.03
3.24113	100.03
3.25780	100.02
3.27447	100.03
3.29113	100.03
3.30780	100.03
3.32447	100.03
3.34113	100.03
3.35780	100.03
3.37447	100.03
3.39113	100.04
3.40780	100.03
3.42447	100.04
3.44113	100.03
3.45780	100.03
3.47447	100.03
3.49113	100.03
3.50780	100.03
3.52447	100.04
3.54113	100.04
3.55780	100.04
3.57447	100.03
3.59113	100.03
3.60780	100.04
3.62447	100.03
3.64113	100.03
3.65780	100.03
3.67447	100.03
3.69113	100.03
3.70780	100.03
3.72447	100.03
3.74113	100.03
3.75780	100.03
3.77447	100.03
3.79113	100.03
3.80780	100.04
3.82447	100.03
3.84113	100.03
3.85780	100.03
3.87447	100.04
3.89113	100.04
3.90780	100.03
3.92447	100.03
3.94113	100.04
3.95780	100.04
3.97447	100.03
3.99113	100.04

[Status Trace (Carrier Gas Pressure)]
Interval(msec)	1000
# of Points	240
Start Time(min)	0.008
End Time(min)	3.991
Intensity Units	
Intensity Multiplier	1
R.Time (min)	Intensity
0.00780	58.00
0.02447	55.36
0.04113	57.08
0.05780	59.26
0.07447	59.36
0.09113	58.07
0.10780	57.98
0.12447	58.01
0.14113	58.01
0.15780	58.00
0.17447	58.00
0.19113	58.00
0.20780	58.00
0.22447	58.00
0.24113	58.00
0.25780	58.00
0.27447	58.00
0.29113	58.00
0.30780	58.00
0.32447	58.00
0.34113	58.00
0.35780	58.00
0.37447	58.00
0.39113	58.00
0.40780	58.00
0.42447	58.00
0.44113	58.00
0.45780	58.00
0.47447	58.00
0.49113	58.00
0.50780	58.00
0.52447	58.00
0.54113	58.00
0.55780	58.00
0.57447	58.00
0.59113	58.00
0.60780	58.00
0.62447	58.00
0.64113	58.00
0.65780	58.00
0.67447	58.00
0.69113	58.00
0.70780	58.00
0.72447	58.00
0.74113	58.00
0.75780	58.00
0.77447	58.00
0.79113	58.00
0.80780	58.00
0.82447	58.00
0.84113	58.00
0.85780	58.00
0.87447	58.00
0.89113	58.00
0.90780	58.00
0.92447	58.00
0.94113	58.00
0.95780	58.00
0.97447	58.00
0.99113	58.00
1.00780	58.00
1.02447	58.00
1.04113	58.00
1.05780	58.00
1.07447	58.00
1.09113	58.00
1.10780	58.00
1.12447	58.00
1.14113	58.00
1.15780	58.00
1.17447	58.00
1.19113	58.00
1.20780	58.00
1.22447	58.00
1.24113	58.00
1.25780	58.00
1.27447	58.00
1.29113	58.00
1.30780	58.00
1.32447	58.00
1.34113	58.00
1.35780	58.00
1.37447	58.00
1.39113	58.00
1.40780	58.00
1.42447	58.00
1.44113	58.00
1.45780	58.00
1.47447	58.00
1.49113	58.00
1.50780	58.00
1.52447	58.00
1.54113	58.00
1.55780	58.00
1.57447	58.00
1.59113	58.00
1.60780	58.00
1.62447	58.00
1.64113	58.00
1.65780	58.00
1.67447	58.01
1.69113	58.00
1.70780	58.00
1.72447	58.00
1.74113	58.00
1.75780	58.00
1.77447	58.00
1.79113	58.00
1.80780	58.00
1.82447	58.00
1.84113	58.00
1.85780	58.00
1.87447	58.00
1.89113	58.00
1.90780	58.00
1.92447	58.00
1.94113	58.00
1.95780	58.00
1.97447	58.00
1.99113	58.00
2.00780	58.00
2.02447	58.00
2.04113	58.00
2.05780	58.00
2.07447	58.00
2.09113	58.00
2.10780	58.00
2.12447	58.00
2.14113	58.00
2.15780	58.00
2.17447	58.00
2.19113	58.00
2.20780	58.00
2.22447	58.00
2.24113	58.00
2.25780	58.00
2.27447	58.00
2.29113	58.00
2.30780	58.00
2.32447	58.00
2.34113	58.00
2.35780	58.00
2.37447	58.00
2.39113	57.99
2.40780	57.99
2.42447	58.00
2.44113	58.00
2.45780	58.00
2.47447	58.00
2.49113	58.00
2.50780	58.00
2.52447	57.98
2.54113	58.00
2.55780	58.00
2.57447	58.00
2.59113	58.00
2.60780	58.00
2.62447	58.00
2.64113	58.00
2.65780	58.00
2.67447	58.00
2.69113	58.00
2.70780	58.00
2.72447	58.00
2.74113	58.00
2.75780	58.00
2.77447	58.00
2.79113	58.00
2.80780	58.00
2.82447	58.00
2.84113	58.00
2.85780	58.00
2.87447	58.00
2.89113	58.00
2.90780	58.00
2.92447	58.00
2.94113	58.00
2.95780	58.00
2.97447	58.00
2.99113	58.00
3.00780	58.00
3.02447	58.00
3.04113	58.00
3.05780	58.00
3.07447	58.00
3.09113	58.00
3.10780	58.00
3.12447	58.00
3.14113	58.00
3.15780	58.00
3.17447	58.00
3.19113	58.00
3.20780	58.00
3.22447	58.00
3.24113	58.00
3.25780	58.00
3.27447	58.00
3.29113	58.00
3.30780	58.00
3.32447	58.00
3.34113	58.00
3.35780	58.00
3.37447	58.00
3.39113	58.00
3.40780	58.00
3.42447	58.00
3.44113	58.00
3.45780	58.00
3.47447	58.00
3.49113	58.00
3.50780	58.00
3.52447	58.00
3.54113	58.00
3.55780	58.00
3.57447	58.00
3.59113	58.00
3.60780	58.00
3.62447	58.00
3.64113	58.00
3.65780	58.00
3.67447	58.00
3.69113	58.00
3.70780	58.00
3.72447	58.00
3.74113	58.00
3.75780	58.00
3.77447	58.00
3.79113	58.00
3.80780	58.00
3.82447	58.00
3.84113	58.00
3.85780	58.00
3.87447	58.00
3.89113	58.00
3.90780	58.00
3.92447	58.00
3.94113	58.00
3.95780	58.00
3.97447	58.00
3.99113	58.00

[Status Trace (Carrier Gas Flow)]
Interval(msec)	1000
# of Points	240
Start Time(min)	0.008
End Time(min)	3.991
Intensity Units	
Intensity Multiplier	1
R.Time (min)	Intensity
0.00780	34.52
0.02447	34.54
0.04113	34.54
0.05780	34.55
0.07447	34.51
0.09113	34.52
0.10780	34.52
0.12447	34.52
0.14113	34.52
0.15780	34.52
0.17447	34.52
0.19113	34.52
0.20780	34.52
0.22447	34.52
0.24113	34.52
0.25780	34.52
0.27447	34.52
0.29113	34.52
0.30780	34.51
0.32447	34.51
0.34113	34.52
0.35780	34.52
0.37447	34.52
0.39113	34.52
0.40780	34.51
0.42447	34.52
0.44113	34.52
0.45780	34.52
0.47447	34.52
0.49113	34.52
0.50780	34.52
0.52447	34.52
0.54113	34.52
0.55780	34.52
0.57447	34.52
0.59113	34.51
0.60780	34.52
0.62447	34.52
0.64113	34.52
0.65780	34.52
0.67447	34.52
0.69113	34.52
0.70780	34.53
0.72447	34.52
0.74113	34.52
0.75780	34.52
0.77447	34.52
0.79113	34.51
0.80780	34.51
0.82447	34.51
0.84113	34.52
0.85780	34.51
0.87447	34.52
0.89113	34.53
0.90780	34.52
0.92447	34.52
0.94113	34.52
0.95780	34.51
0.97447	34.52
0.99113	34.52
1.00780	34.52
1.02447	34.52
1.04113	34.52
1.05780	34.52
1.07447	34.52
1.09113	34.52
1.10780	34.51
1.12447	34.52
1.14113	34.52
1.15780	34.52
1.17447	34.52
1.19113	34.52
1.20780	34.52
1.22447	34.51
1.24113	34.52
1.25780	34.52
1.27447	34.52
1.29113	34.52
1.30780	34.52
1.32447	34.52
1.34113	34.52
1.35780	34.52
1.37447	34.52
1.39113	34.52
1.40780	34.52
1.42447	34.52
1.44113	34.52
1.45780	34.52
1.47447	34.52
1.49113	34.52
1.50780	34.52
1.52447	34.52
1.54113	34.51
1.55780	34.52
1.57447	34.52
1.59113	34.52
1.60780	34.52
1.62447	34.52
1.64113	34.52
1.65780	34.52
1.67447	34.52
1.69113	34.52
1.70780	34.52
1.72447	34.51
1.74113	34.53
1.75780	34.52
1.77447	34.53
1.79113	34.52
1.80780	34.53
1.82447	34.52
1.84113	34.52
1.85780	34.52
1.87447	34.52
1.89113	34.51
1.90780	34.52
1.92447	34.52
1.94113	34.52
1.95780	34.52
1.97447	34.52
1.99113	34.52
2.00780	34.52
2.02447	34.52
2.04113	34.52
2.05780	34.52
2.07447	34.52
2.09113	34.52
2.10780	34.52
2.12447	34.52
2.14113	34.52
2.15780	34.52
2.17447	34.52
2.19113	34.52
2.20780	34.52
2.22447	34.52
2.24113	34.52
2.25780	34.52
2.27447	34.51
2.29113	34.52
2.30780	34.52
2.32447	34.52
2.34113	34.51
2.35780	34.52
2.37447	34.52
2.39113	34.51
2.40780	34.51
2.42447	34.52
2.44113	34.52
2.45780	34.52
2.47447	34.52
2.49113	34.52
2.50780	34.39
2.52447	34.52
2.54113	34.52
2.55780	34.52
2.57447	34.52
2.59113	34.52
2.60780	34.52
2.62447	34.52
2.64113	34.52
2.65780	34.52
2.67447	34.52
2.69113	34.52
2.70780	34.52
2.72447	34.52
2.74113	34.52
2.75780	34.52
2.77447	34.52
2.79113	34.52
2.80780	34.51
2.82447	34.51
2.84113	34.52
2.85780	34.52
2.87447	34.51
2.89113	34.52
2.90780	34.52
2.92447	34.52
2.94113	34.52
2.95780	34.52
2.97447	34.52
2.99113	34.52
3.00780	34.53
3.02447	34.52
3.04113	34.53
3.05780	34.52
3.07447	34.52
3.09113	34.52
3.10780	34.52
3.12447	34.51
3.14113	34.52
3.15780	34.52
3.17447	34.52
3.19113	34.52
3.20780	34.52
3.22447	34.52
3.24113	34.52
3.25780	34.52
3.27447	34.52
3.29113	34.53
3.30780	34.52
3.32447	34.52
3.34113	34.52
3.35780	34.52
3.37447	34.52
3.39113	34.52
3.40780	34.52
3.42447	34.52
3.44113	34.52
3.45780	34.52
3.47447	34.52
3.49113	34.52
3.50780	34.52
3.52447	34.52
3.54113	34.52
3.55780	34.52
3.57447	34.53
3.59113	34.52
3.60780	34.52
3.62447	34.52
3.64113	34.52
3.65780	34.52
3.67447	34.52
3.69113	34.52
3.70780	34.52
3.72447	34.52
3.74113	34.52
3.75780	34.52
3.77447	34.52
3.79113	34.52
3.80780	34.52
3.82447	34.52
3.84113	34.52
3.85780	34.52
3.87447	34.52
3.89113	34.52
3.90780	34.52
3.92447	34.51
3.94113	34.52
3.95780	34.52
3.97447	34.53
3.99113	34.52

[Status Trace (Column Flow)]
Interval(msec)	1000
# of Points	240
Start Time(min)	0.008
End Time(min)	3.991
Intensity Units	
Intensity Multiplier	1
R.Time (min)	Intensity
0.00780	5.54
0.02447	5.23
0.04113	5.43
0.05780	5.68
0.07447	5.70
0.09113	5.54
0.10780	5.53
0.12447	5.54
0.14113	5.54
0.15780	5.54
0.17447	5.54
0.19113	5.54
0.20780	5.54
0.22447	5.54
0.24113	5.54
0.25780	5.54
0.27447	5.54
0.29113	5.54
0.30780	5.54
0.32447	5.54
0.34113	5.54
0.35780	5.54
0.37447	5.54
0.39113	5.54
0.40780	5.54
0.42447	5.54
0.44113	5.54
0.45780	5.54
0.47447	5.54
0.49113	5.54
0.50780	5.54
0.52447	5.54
0.54113	5.54
0.55780	5.54
0.57447	5.54
0.59113	5.54
0.60780	5.54
0.62447	5.54
0.64113	5.54
0.65780	5.54
0.67447	5.54
0.69113	5.54
0.70780	5.54
0.72447	5.54
0.74113	5.54
0.75780	5.54
0.77447	5.54
0.79113	5.54
0.80780	5.54
0.82447	5.54
0.84113	5.54
0.85780	5.54
0.87447	5.54
0.89113	5.54
0.90780	5.54
0.92447	5.54
0.94113	5.54
0.95780	5.54
0.97447	5.54
0.99113	5.54
1.00780	5.54
1.02447	5.54
1.04113	5.54
1.05780	5.54
1.07447	5.54
1.09113	5.54
1.10780	5.54
1.12447	5.54
1.14113	5.54
1.15780	5.54
1.17447	5.54
1.19113	5.54
1.20780	5.54
1.22447	5.54
1.24113	5.54
1.25780	5.54
1.27447	5.54
1.29113	5.54
1.30780	5.54
1.32447	5.54
1.34113	5.54
1.35780	5.54
1.37447	5.54
1.39113	5.54
1.40780	5.54
1.42447	5.54
1.44113	5.54
1.45780	5.54
1.47447	5.54
1.49113	5.54
1.50780	5.54
1.52447	5.54
1.54113	5.54
1.55780	5.54
1.57447	5.54
1.59113	5.54
1.60780	5.54
1.62447	5.53
1.64113	5.53
1.65780	5.52
1.67447	5.51
1.69113	5.50
1.70780	5.49
1.72447	5.47
1.74113	5.46
1.75780	5.45
1.77447	5.44
1.79113	5.43
1.80780	5.42
1.82447	5.41
1.84113	5.40
1.85780	5.39
1.87447	5.38
1.89113	5.37
1.90780	5.36
1.92447	5.35
1.94113	5.34
1.95780	5.33
1.97447	5.32
1.99113	5.31
2.00780	5.31
2.02447	5.30
2.04113	5.29
2.05780	5.28
2.07447	5.27
2.09113	5.26
2.10780	5.25
2.12447	5.24
2.14113	5.23
2.15780	5.22
2.17447	5.21
2.19113	5.20
2.20780	5.19
2.22447	5.18
2.24113	5.17
2.25780	5.16
2.27447	5.15
2.29113	5.14
2.30780	5.13
2.32447	5.13
2.34113	5.12
2.35780	5.11
2.37447	5.10
2.39113	5.10
2.40780	5.10
2.42447	5.10
2.44113	5.10
2.45780	5.10
2.47447	5.10
2.49113	5.10
2.50780	5.10
2.52447	5.10
2.54113	5.10
2.55780	5.10
2.57447	5.10
2.59113	5.10
2.60780	5.10
2.62447	5.10
2.64113	5.10
2.65780	5.10
2.67447	5.10
2.69113	5.10
2.70780	5.10
2.72447	5.10
2.74113	5.10
2.75780	5.10
2.77447	5.10
2.79113	5.10
2.80780	5.10
2.82447	5.10
2.84113	5.10
2.85780	5.10
2.87447	5.10
2.89113	5.10
2.90780	5.10
2.92447	5.10
2.94113	5.10
2.95780	5.10
2.97447	5.09
2.99113	5.09
3.00780	5.09
3.02447	5.09
3.04113	5.09
3.05780	5.09
3.07447	5.09
3.09113	5.09
3.10780	5.09
3.12447	5.09
3.14113	5.09
3.15780	5.09
3.17447	5.09
3.19113	5.09
3.20780	5.09
3.22447	5.09
3.24113	5.09
3.25780	5.09
3.27447	5.09
3.29113	5.09
3.30780	5.09
3.32447	5.09
3.34113	5.09
3.35780	5.09
3.37447	5.09
3.39113	5.09
3.40780	5.09
3.42447	5.09
3.44113	5.09
3.45780	5.09
3.47447	5.09
3.49113	5.09
3.50780	5.09
3.52447	5.09
3.54113	5.09
3.55780	5.09
3.57447	5.09
3.59113	5.09
3.60780	5.09
3.62447	5.09
3.64113	5.09
3.65780	5.09
3.67447	5.09
3.69113	5.09
3.70780	5.09
3.72447	5.09
3.74113	5.09
3.75780	5.09
3.77447	5.09
3.79113	5.09
3.80780	5.09
3.82447	5.09
3.84113	5.09
3.85780	5.09
3.87447	5.09
3.89113	5.09
3.90780	5.09
3.92447	5.09
3.94113	5.09
3.95780	5.09
3.97447	5.09
3.99113	5.09

[Status Trace (Linear Velocity)]
Interval(msec)	1000
# of Points	240
Start Time(min)	0.008
End Time(min)	3.991
Intensity Units	
Intensity Multiplier	1
R.Time (min)	Intensity
0.00780	39.01
0.02447	37.28
0.04113	38.41
0.05780	39.84
0.07447	39.91
0.09113	39.06
0.10780	39.00
0.12447	39.02
0.14113	39.02
0.15780	39.02
0.17447	39.02
0.19113	39.02
0.20780	39.02
0.22447	39.02
0.24113	39.02
0.25780	39.02
0.27447	39.02
0.29113	39.02
0.30780	39.02
0.32447	39.02
0.34113	39.02
0.35780	39.02
0.37447	39.02
0.39113	39.02
0.40780	39.02
0.42447	39.02
0.44113	39.02
0.45780	39.02
0.47447	39.02
0.49113	39.02
0.50780	39.02
0.52447	39.02
0.54113	39.02
0.55780	39.02
0.57447	39.02
0.59113	39.02
0.60780	39.02
0.62447	39.02
0.64113	39.02
0.65780	39.02
0.67447	39.02
0.69113	39.02
0.70780	39.02
0.72447	39.02
0.74113	39.02
0.75780	39.02
0.77447	39.02
0.79113	39.02
0.80780	39.02
0.82447	39.02
0.84113	39.02
0.85780	39.02
0.87447	39.02
0.89113	39.02
0.90780	39.02
0.92447	39.02
0.94113	39.02
0.95780	39.02
0.97447	39.02
0.99113	39.02
1.00780	39.02
1.02447	39.02
1.04113	39.02
1.05780	39.02
1.07447	39.02
1.09113	39.02
1.10780	39.02
1.12447	39.02
1.14113	39.02
1.15780	39.02
1.17447	39.02
1.19113	39.02
1.20780	39.02
1.22447	39.02
1.24113	39.02
1.25780	39.02
1.27447	39.02
1.29113	39.02
1.30780	39.02
1.32447	39.02
1.34113	39.02
1.35780	39.02
1.37447	39.02
1.39113	39.02
1.40780	39.02
1.42447	39.02
1.44113	39.02
1.45780	39.02
1.47447	39.02
1.49113	39.02
1.50780	39.02
1.52447	39.02
1.54113	39.02
1.55780	39.02
1.57447	39.02
1.59113	39.02
1.60780	39.01
1.62447	39.00
1.64113	38.99
1.65780	38.96
1.67447	38.93
1.69113	38.90
1.70780	38.86
1.72447	38.83
1.74113	38.79
1.75780	38.76
1.77447	38.74
1.79113	38.71
1.80780	38.67
1.82447	38.64
1.84113	38.61
1.85780	38.58
1.87447	38.55
1.89113	38.51
1.90780	38.48
1.92447	38.45
1.94113	38.42
1.95780	38.39
1.97447	38.36
1.99113	38.33
2.00780	38.31
2.02447	38.27
2.04113	38.24
2.05780	38.21
2.07447	38.18
2.09113	38.15
2.10780	38.12
2.12447	38.09
2.14113	38.06
2.15780	38.03
2.17447	38.00
2.19113	37.97
2.20780	37.95
2.22447	37.92
2.24113	37.89
2.25780	37.86
2.27447	37.83
2.29113	37.80
2.30780	37.77
2.32447	37.74
2.34113	37.71
2.35780	37.68
2.37447	37.67
2.39113	37.66
2.40780	37.66
2.42447	37.67
2.44113	37.67
2.45780	37.67
2.47447	37.66
2.49113	37.66
2.50780	37.66
2.52447	37.65
2.54113	37.66
2.55780	37.66
2.57447	37.66
2.59113	37.66
2.60780	37.66
2.62447	37.65
2.64113	37.65
2.65780	37.65
2.67447	37.65
2.69113	37.65
2.70780	37.65
2.72447	37.65
2.74113	37.65
2.75780	37.65
2.77447	37.65
2.79113	37.65
2.80780	37.65
2.82447	37.65
2.84113	37.65
2.85780	37.65
2.87447	37.65
2.89113	37.65
2.90780	37.65
2.92447	37.65
2.94113	37.64
2.95780	37.64
2.97447	37.64
2.99113	37.64
3.00780	37.64
3.02447	37.64
3.04113	37.64
3.05780	37.64
3.07447	37.64
3.09113	37.64
3.10780	37.64
3.12447	37.63
3.14113	37.63
3.15780	37.63
3.17447	37.63
3.19113	37.63
3.20780	37.63
3.22447	37.63
3.24113	37.63
3.25780	37.63
3.27447	37.63
3.29113	37.63
3.30780	37.63
3.32447	37.63
3.34113	37.63
3.35780	37.63
3.37447	37.63
3.39113	37.63
3.40780	37.63
3.42447	37.63
3.44113	37.63
3.45780	37.63
3.47447	37.63
3.49113	37.63
3.50780	37.63
3.52447	37.63
3.54113	37.63
3.55780	37.63
3.57447	37.63
3.59113	37.63
3.60780	37.63
3.62447	37.63
3.64113	37.63
3.65780	37.63
3.67447	37.63
3.69113	37.63
3.70780	37.63
3.72447	37.63
3.74113	37.63
3.75780	37.63
3.77447	37.63
3.79113	37.63
3.80780	37.63
3.82447	37.63
3.84113	37.63
3.85780	37.63
3.87447	37.63
3.89113	37.63
3.90780	37.63
3.92447	37.63
3.94113	37.63
3.95780	37.63
3.97447	37.63
3.99113	37.63

