[Header]
Application Name	LabSolutions
Version	5.110
Data File Name	C:\Users\User\Desktop\GC Analyses\Jack\Nachusa Grasslands Sampling\T3 Timepoint July 12th\T3_07122022_013.gcd
Output Date	3/14/2023
Output Time	3:43:30 PM

[File Information]
Type	Data File
Generated	3/13/2023 3:49:39 PM
Generated by	System Administrator
Modified	3/13/2023 3:56:13 PM
Modified by	System Administrator

[Sample Information]
Operator Name	System Administrator
Acquired	3/13/2023 3:52:12 PM
Sample Type	0:Unknown
Level	0
Sample Name	013
Sample ID	013
ISTD Amount1	1
ISTD Amount2	1
ISTD Amount3	1
ISTD Amount4	1
ISTD Amount5	1
ISTD Amount6	1
ISTD Amount7	1
ISTD Amount8	1
ISTD Amount9	1
ISTD Amount10	1
ISTD Amount11	1
ISTD Amount12	1
ISTD Amount13	1
ISTD Amount14	1
ISTD Amount15	1
ISTD Amount16	1
ISTD Amount17	1
ISTD Amount18	1
ISTD Amount19	1
ISTD Amount20	1
ISTD Amount21	1
ISTD Amount22	1
ISTD Amount23	1
ISTD Amount24	1
ISTD Amount25	1
ISTD Amount26	1
ISTD Amount27	1
ISTD Amount28	1
ISTD Amount29	1
ISTD Amount30	1
ISTD Amount31	1
ISTD Amount32	1
Sample Amount	1
Dilution Factor	1
Vial#	12
Injection Volume	1
Injection Count	1
Bar Code	

[Original Files]
Data File	C:\Users\User\Desktop\GC Analyses\Jack\Nachusa Grasslands Sampling\T3 Timepoint July 12th\T3_07122022_013.gcd
Method File	C:\LabSolutions\Data\GHG_4min_2022\ghg3_togas_w_acet_4 min_new_int.gcm
Batch File	C:\LabSolutions\Data\AutoSamplerTesting\T3_07122022.gcb
Report Format File	c:\LabSolutions\System\DEFAULT.lsr

[File Description]


[Configuration]
Instrument Name	C0B7VH3-Instrument1
Instrument #	1
Line #	1
# of Detectors	3
Detector ID	DET#1	DET#2	DET#3
Detector Name	FID	PTCD	ECD
# of Channels	1	1	1

[Peak Table(Ch1)]
# of Peaks	3
Peak#	R.Time	I.Time	F.Time	Area	Height	A/H	Conc.	Mark	ID#	Name	k'	Plate #	Plate Ht.	Tailing	Resolution	Sep.Factor	Area Ratio	Height Ratio	Conc. %	Norm Conc.
1	1.476	1.399	1.531	22990	11053	2.080	162.314	   	1	CO	0.000	9292	16.142	1.193	0.000	0.000	0	0	16.805	16.805
2	1.571	1.538	1.633	3975	2008	1.979	76.858	   	2	CH4	0.065	11598	12.933	1.215	1.594	0.000	0	0	7.957	7.957
3	2.000	1.952	2.374	2895620	1393478	2.078	726.722	   	3	CO2	0.355	17562	8.541	1.185	7.227	5.500	0	0	75.238	75.238

[Peak Table(Ch2)]
# of Peaks	0

[Peak Table(Ch3)]
# of Peaks	5
Peak#	R.Time	I.Time	F.Time	Area	Height	A/H	Conc.	Mark	ID#	Name	k'	Plate #	Plate Ht.	Tailing	Resolution	Sep.Factor	Area Ratio	Height Ratio	Conc. %	Norm Conc.
1	2.462	2.396	2.510	1447	475	3.046	0.000	   			0.000	10095	14.859	0.000	0.000	0.000	0	0	0.000	0.000
2	2.528	2.510	2.583	901	289	3.118	0.000	 V 			0.027	4743	31.628	0.000	0.539	0.000	0	0	0.000	0.000
3	2.601	2.583	2.664	425	152	2.799	0.000	 V 			0.057	3914	38.322	0.000	0.468	2.111	0	0	0.000	0.000
4	2.880	2.700	3.085	18314	4750	3.856	0.468	   	1	N2O	0.170	13258	11.314	1.509	2.092	3.000	0	0	100.000	100.000
5	3.379	3.206	3.965	17017	672	25.315	0.000	   	2	SF6	0.372	392	382.828	2.194	1.274	2.193	0	0	0.000	0.000

[Compound Results(Ch1)]
# of IDs	6
ID#	Name	R.Time	Area	Height	Conc.	Curve	3rd	2nd	1st	Constant	Area Ratio	Height Ratio	Conc. %	Norm Conc.
1	CO	1.476	22990	11053	162.314	Linear	0.000000e+00	0.000000e+00	1.416423e+002	0.000000e+00	0	0	16.805	16.805
2	CH4	1.571	3975	2008	76.858	Linear	0.000000e+00	0.000000e+00	5.171738e+001	0.000000e+00	0	0	7.957	7.957
3	CO2	2.000	2895620	1393478	726.722	Linear	0.000000e+00	0.000000e+00	3.984494e+003	0.000000e+00	0	0	75.238	75.238
4	Ethylene	0.000	0	0	0.000	Linear	0.000000e+00	0.000000e+00	0.000000e+00	0.000000e+00	0	0	0.000	0.000
5	Acetylene	0.000	0	0	0.000	Linear	0.000000e+00	0.000000e+00	0.000000e+00	0.000000e+00	0	0	0.000	0.000
6	Ethane	0.000	0	0	0.000	Linear	0.000000e+00	0.000000e+00	0.000000e+00	0.000000e+00	0	0	0.000	0.000

[Compound Results(Ch2)]
# of IDs	5
ID#	Name	R.Time	Area	Height	Conc.	Curve	3rd	2nd	1st	Constant	Area Ratio	Height Ratio	Conc. %	Norm Conc.
1	Hydrogen	0.000	0	0	0.000	Linear	0.000000e+00	0.000000e+00	0.000000e+00	0.000000e+00	0	0	0.000	0.000
2	Oxygen	0.000	0	0	0.000	Linear	0.000000e+00	0.000000e+00	0.000000e+00	0.000000e+00	0	0	0.000	0.000
3	Nitrogen	0.000	0	0	0.000	Linear	0.000000e+00	0.000000e+00	0.000000e+00	0.000000e+00	0	0	0.000	0.000
4	Methane	0.000	0	0	0.000	Linear	0.000000e+00	0.000000e+00	0.000000e+00	0.000000e+00	0	0	0.000	0.000
5	Carbon Monoxide	0.000	0	0	0.000	Linear	0.000000e+00	0.000000e+00	0.000000e+00	0.000000e+00	0	0	0.000	0.000

[Compound Results(Ch3)]
# of IDs	2
ID#	Name	R.Time	Area	Height	Conc.	Curve	3rd	2nd	1st	Constant	Area Ratio	Height Ratio	Conc. %	Norm Conc.
1	N2O	2.880	18314	4750	0.468	Linear	0.000000e+00	0.000000e+00	3.915173e+004	0.000000e+00	0	0	100.000	100.000
2	SF6	3.379	17017	672	0.000	Linear	0.000000e+00	0.000000e+00	0.000000e+00	0.000000e+00	0	0	0.000	0.000

[Group Results(Ch1)]
# of Groups	0

[Group Results(Ch2)]
# of Groups	0

[Group Results(Ch3)]
# of Groups	0

[Chromatogram (Ch1)]
Interval(msec)	220
# of Points	1091
Start Time(min)	0.002
End Time(min)	3.998
R.Time (min)	Intensity
0.00167	5
0.00533	12
0.00900	12
0.01267	12
0.01633	14
0.02000	13
0.02367	10
0.02733	12
0.03100	16
0.03467	19
0.03833	22
0.04200	24
0.04567	27
0.04933	34
0.05300	38
0.05667	41
0.06033	38
0.06400	32
0.06767	27
0.07133	22
0.07500	20
0.07867	21
0.08233	22
0.08600	18
0.08967	10
0.09333	5
0.09700	1
0.10067	-4
0.10433	-12
0.10800	-17
0.11167	-18
0.11533	-18
0.11900	-16
0.12267	-14
0.12633	-12
0.13000	-12
0.13367	-9
0.13733	0
0.14100	8
0.14467	10
0.14833	6
0.15200	3
0.15567	-0
0.15933	-1
0.16300	-2
0.16667	-5
0.17033	-3
0.17400	3
0.17767	6
0.18133	7
0.18500	8
0.18867	10
0.19233	8
0.19600	8
0.19967	17
0.20333	23
0.20700	19
0.21067	14
0.21433	17
0.21800	19
0.22167	19
0.22533	21
0.22900	23
0.23267	23
0.23633	22
0.24000	19
0.24367	20
0.24733	24
0.25100	32
0.25467	40
0.25833	42
0.26200	34
0.26567	23
0.26933	14
0.27300	9
0.27667	5
0.28033	4
0.28400	5
0.28767	10
0.29133	16
0.29500	19
0.29867	18
0.30233	21
0.30600	31
0.30967	35
0.31333	29
0.31700	19
0.32067	12
0.32433	8
0.32800	11
0.33167	13
0.33533	15
0.33900	17
0.34267	20
0.34633	23
0.35000	26
0.35367	35
0.35733	41
0.36100	43
0.36467	43
0.36833	45
0.37200	46
0.37567	52
0.37933	62
0.38300	67
0.38667	70
0.39033	73
0.39400	74
0.39767	75
0.40133	74
0.40500	70
0.40867	69
0.41233	70
0.41600	72
0.41967	75
0.42333	77
0.42700	69
0.43067	56
0.43433	49
0.43800	50
0.44167	55
0.44533	51
0.44900	45
0.45267	43
0.45633	39
0.46000	32
0.46367	29
0.46733	28
0.47100	38
0.47467	48
0.47833	52
0.48200	51
0.48567	53
0.48933	51
0.49300	45
0.49667	36
0.50033	27
0.50400	15
0.50767	7
0.51133	-2
0.51500	-13
0.51867	-15
0.52233	-13
0.52600	-7
0.52967	-1
0.53333	1
0.53700	5
0.54067	7
0.54433	6
0.54800	4
0.55167	4
0.55533	4
0.55900	8
0.56267	15
0.56633	23
0.57000	30
0.57367	32
0.57733	31
0.58100	27
0.58467	21
0.58833	12
0.59200	-4
0.59567	-14
0.59933	-17
0.60300	-18
0.60667	-16
0.61033	-9
0.61400	0
0.61767	8
0.62133	13
0.62500	12
0.62867	5
0.63233	-5
0.63600	-11
0.63967	-13
0.64333	-10
0.64700	2
0.65067	13
0.65433	13
0.65800	8
0.66167	3
0.66533	-2
0.66900	-6
0.67267	-13
0.67633	-23
0.68000	-28
0.68367	-27
0.68733	-26
0.69100	-25
0.69467	-22
0.69833	-20
0.70200	-18
0.70567	-15
0.70933	-14
0.71300	-10
0.71667	-6
0.72033	-5
0.72400	-5
0.72767	-4
0.73133	-4
0.73500	-6
0.73867	-5
0.74233	-8
0.74600	-13
0.74967	-17
0.75333	-17
0.75700	-16
0.76067	-15
0.76433	-12
0.76800	-7
0.77167	-4
0.77533	-4
0.77900	-7
0.78267	-14
0.78633	-21
0.79000	-21
0.79367	-18
0.79733	-18
0.80100	-23
0.80467	-26
0.80833	-26
0.81200	-15
0.81567	5
0.81933	22
0.82300	26
0.82667	21
0.83033	6
0.83400	-5
0.83767	-13
0.84133	-25
0.84500	-31
0.84867	-33
0.85233	-33
0.85600	-35
0.85967	-40
0.86333	-40
0.86700	-38
0.87067	-38
0.87433	-38
0.87800	-36
0.88167	-36
0.88533	-36
0.88900	-33
0.89267	-29
0.89633	-25
0.90000	-20
0.90367	-18
0.90733	-21
0.91100	-24
0.91467	-23
0.91833	-19
0.92200	-21
0.92567	-28
0.92933	-34
0.93300	-27
0.93667	-8
0.94033	7
0.94400	12
0.94767	8
0.95133	-5
0.95500	-22
0.95867	-39
0.96233	-50
0.96600	-52
0.96967	-49
0.97333	-42
0.97700	-31
0.98067	-19
0.98433	-14
0.98800	-13
0.99167	-17
0.99533	-21
0.99900	-27
1.00267	-30
1.00633	-31
1.01000	-35
1.01367	-37
1.01733	-34
1.02100	-31
1.02467	-27
1.02833	-23
1.03200	-19
1.03567	-19
1.03933	-23
1.04300	-23
1.04667	-22
1.05033	-23
1.05400	-24
1.05767	-26
1.06133	-25
1.06500	-20
1.06867	-24
1.07233	-32
1.07600	-40
1.07967	-45
1.08333	-48
1.08700	-48
1.09067	-50
1.09433	-49
1.09800	-44
1.10167	-41
1.10533	-39
1.10900	-35
1.11267	-25
1.11633	-14
1.12000	-12
1.12367	-21
1.12733	-30
1.13100	-35
1.13467	-35
1.13833	-31
1.14200	-34
1.14567	-40
1.14933	-44
1.15300	-44
1.15667	-45
1.16033	-47
1.16400	-48
1.16767	-50
1.17133	-47
1.17500	-49
1.17867	-51
1.18233	-49
1.18600	-47
1.18967	-53
1.19333	-60
1.19700	-62
1.20067	-58
1.20433	-56
1.20800	-56
1.21167	-56
1.21533	-55
1.21900	-52
1.22267	-50
1.22633	-52
1.23000	-53
1.23367	-47
1.23733	-41
1.24100	-42
1.24467	-46
1.24833	-51
1.25200	-54
1.25567	-48
1.25933	-43
1.26300	-35
1.26667	-32
1.27033	-33
1.27400	-35
1.27767	-37
1.28133	-37
1.28500	-43
1.28867	-50
1.29233	-47
1.29600	-46
1.29967	-54
1.30333	-58
1.30700	-56
1.31067	-55
1.31433	-56
1.31800	-60
1.32167	-64
1.32533	-66
1.32900	-72
1.33267	-80
1.33633	-83
1.34000	-85
1.34367	-87
1.34733	-89
1.35100	-88
1.35467	-81
1.35833	-67
1.36200	-57
1.36567	-50
1.36933	-42
1.37300	-42
1.37667	-45
1.38033	-50
1.38400	-57
1.38767	-64
1.39133	-72
1.39500	-81
1.39867	-88
1.40233	-88
1.40600	-82
1.40967	-74
1.41333	-65
1.41700	-57
1.42067	-53
1.42433	-58
1.42800	-65
1.43167	-72
1.43533	-76
1.43900	-75
1.44267	-45
1.44633	121
1.45000	632
1.45367	1660
1.45733	3320
1.46100	5382
1.46467	7405
1.46833	9066
1.47200	10217
1.47567	10776
1.47933	10652
1.48300	9811
1.48667	8392
1.49033	6679
1.49400	4970
1.49767	3478
1.50133	2288
1.50500	1397
1.50867	758
1.51233	320
1.51600	29
1.51967	-162
1.52333	-286
1.52700	-362
1.53067	-413
1.53433	-437
1.53800	-435
1.54167	-395
1.54533	-268
1.54900	-12
1.55267	352
1.55633	752
1.56000	1115
1.56367	1401
1.56733	1583
1.57100	1634
1.57467	1537
1.57833	1301
1.58200	987
1.58567	667
1.58933	389
1.59300	176
1.59667	28
1.60033	-72
1.60400	-138
1.60767	-181
1.61133	-213
1.61500	-234
1.61867	-247
1.62233	-254
1.62600	-256
1.62967	-257
1.63333	-259
1.63700	-259
1.64067	-254
1.64433	-249
1.64800	-244
1.65167	-239
1.65533	-233
1.65900	-230
1.66267	-229
1.66633	-224
1.67000	-220
1.67367	-221
1.67733	-224
1.68100	-225
1.68467	-227
1.68833	-228
1.69200	-228
1.69567	-227
1.69933	-222
1.70300	-212
1.70667	-205
1.71033	-207
1.71400	-212
1.71767	-217
1.72133	-223
1.72500	-229
1.72867	-232
1.73233	-231
1.73600	-223
1.73967	-209
1.74333	-203
1.74700	-204
1.75067	-201
1.75433	-194
1.75800	-188
1.76167	-184
1.76533	-185
1.76900	-185
1.77267	-189
1.77633	-196
1.78000	-204
1.78367	-212
1.78733	-218
1.79100	-224
1.79467	-221
1.79833	-212
1.80200	-204
1.80567	-197
1.80933	-191
1.81300	-188
1.81667	-188
1.82033	-190
1.82400	-189
1.82767	-189
1.83133	-194
1.83500	-200
1.83867	-206
1.84233	-208
1.84600	-203
1.84967	-199
1.85333	-195
1.85700	-185
1.86067	-180
1.86433	-183
1.86800	-188
1.87167	-189
1.87533	-190
1.87900	-193
1.88267	-187
1.88633	-178
1.89000	-175
1.89367	-173
1.89733	-174
1.90100	-177
1.90467	-182
1.90833	-184
1.91200	-182
1.91567	-180
1.91933	-179
1.92300	-179
1.92667	-183
1.93033	-186
1.93400	-187
1.93767	-189
1.94133	-188
1.94500	-183
1.94867	-179
1.95233	-168
1.95600	-79
1.95967	531
1.96333	3744
1.96700	16670
1.97067	56418
1.97433	150119
1.97800	319726
1.98167	559239
1.98533	831096
1.98900	1085472
1.99267	1279725
1.99633	1386223
2.00000	1393343
2.00367	1306277
2.00733	1146895
2.01100	947315
2.01467	740967
2.01833	553646
2.02200	399157
2.02567	280489
2.02933	193912
2.03300	133007
2.03667	91199
2.04033	62927
2.04400	43959
2.04767	31247
2.05133	22692
2.05500	16882
2.05867	12891
2.06233	10100
2.06600	8108
2.06967	6655
2.07333	5571
2.07700	4740
2.08067	4088
2.08433	3570
2.08800	3158
2.09167	2823
2.09533	2538
2.09900	2302
2.10267	2109
2.10633	1943
2.11000	1800
2.11367	1671
2.11733	1553
2.12100	1442
2.12467	1344
2.12833	1254
2.13200	1171
2.13567	1101
2.13933	1041
2.14300	985
2.14667	934
2.15033	890
2.15400	854
2.15767	824
2.16133	795
2.16500	764
2.16867	729
2.17233	691
2.17600	650
2.17967	609
2.18333	573
2.18700	540
2.19067	507
2.19433	482
2.19800	464
2.20167	448
2.20533	429
2.20900	415
2.21267	406
2.21633	397
2.22000	392
2.22367	384
2.22733	375
2.23100	366
2.23467	359
2.23833	352
2.24200	342
2.24567	330
2.24933	321
2.25300	309
2.25667	301
2.26033	295
2.26400	292
2.26767	288
2.27133	284
2.27500	275
2.27867	270
2.28233	266
2.28600	260
2.28967	248
2.29333	236
2.29700	225
2.30067	217
2.30433	213
2.30800	218
2.31167	219
2.31533	214
2.31900	203
2.32267	192
2.32633	188
2.33000	184
2.33367	173
2.33733	165
2.34100	159
2.34467	150
2.34833	144
2.35200	140
2.35567	133
2.35933	130
2.36300	129
2.36667	129
2.37033	128
2.37400	123
2.37767	115
2.38133	110
2.38500	109
2.38867	110
2.39233	110
2.39600	108
2.39967	109
2.40333	111
2.40700	112
2.41067	120
2.41433	128
2.41800	132
2.42167	132
2.42533	134
2.42900	136
2.43267	134
2.43633	130
2.44000	123
2.44367	116
2.44733	111
2.45100	104
2.45467	96
2.45833	85
2.46200	78
2.46567	73
2.46933	73
2.47300	74
2.47667	76
2.48033	74
2.48400	73
2.48767	70
2.49133	70
2.49500	74
2.49867	77
2.50233	80
2.50600	81
2.50967	82
2.51333	82
2.51700	80
2.52067	77
2.52433	74
2.52800	71
2.53167	67
2.53533	59
2.53900	55
2.54267	52
2.54633	49
2.55000	49
2.55367	50
2.55733	55
2.56100	61
2.56467	70
2.56833	80
2.57200	85
2.57567	84
2.57933	83
2.58300	83
2.58667	87
2.59033	94
2.59400	98
2.59767	100
2.60133	104
2.60500	105
2.60867	107
2.61233	109
2.61600	103
2.61967	91
2.62333	80
2.62700	73
2.63067	70
2.63433	67
2.63800	67
2.64167	69
2.64533	70
2.64900	74
2.65267	78
2.65633	82
2.66000	86
2.66367	90
2.66733	93
2.67100	95
2.67467	94
2.67833	94
2.68200	96
2.68567	99
2.68933	102
2.69300	98
2.69667	92
2.70033	92
2.70400	94
2.70767	93
2.71133	87
2.71500	85
2.71867	88
2.72233	94
2.72600	97
2.72967	94
2.73333	90
2.73700	87
2.74067	85
2.74433	82
2.74800	81
2.75167	79
2.75533	78
2.75900	77
2.76267	76
2.76633	77
2.77000	76
2.77367	77
2.77733	82
2.78100	91
2.78467	97
2.78833	100
2.79200	101
2.79567	102
2.79933	109
2.80300	118
2.80667	120
2.81033	117
2.81400	112
2.81767	111
2.82133	115
2.82500	121
2.82867	119
2.83233	109
2.83600	97
2.83967	87
2.84333	84
2.84700	78
2.85067	68
2.85433	58
2.85800	50
2.86167	48
2.86533	49
2.86900	51
2.87267	57
2.87633	61
2.88000	64
2.88367	71
2.88733	80
2.89100	87
2.89467	91
2.89833	90
2.90200	88
2.90567	83
2.90933	71
2.91300	59
2.91667	57
2.92033	62
2.92400	70
2.92767	78
2.93133	82
2.93500	85
2.93867	88
2.94233	93
2.94600	94
2.94967	93
2.95333	95
2.95700	91
2.96067	81
2.96433	69
2.96800	60
2.97167	56
2.97533	55
2.97900	54
2.98267	55
2.98633	61
2.99000	74
2.99367	78
2.99733	73
3.00100	70
3.00467	71
3.00833	74
3.01200	76
3.01567	81
3.01933	89
3.02300	92
3.02667	89
3.03033	83
3.03400	85
3.03767	86
3.04133	80
3.04500	71
3.04867	63
3.05233	58
3.05600	57
3.05967	61
3.06333	68
3.06700	76
3.07067	82
3.07433	87
3.07800	90
3.08167	88
3.08533	80
3.08900	75
3.09267	82
3.09633	83
3.10000	77
3.10367	67
3.10733	62
3.11100	65
3.11467	70
3.11833	71
3.12200	68
3.12567	68
3.12933	71
3.13300	71
3.13667	69
3.14033	64
3.14400	54
3.14767	46
3.15133	44
3.15500	45
3.15867	50
3.16233	56
3.16600	64
3.16967	67
3.17333	64
3.17700	66
3.18067	69
3.18433	76
3.18800	84
3.19167	85
3.19533	87
3.19900	89
3.20267	87
3.20633	81
3.21000	71
3.21367	62
3.21733	55
3.22100	55
3.22467	64
3.22833	74
3.23200	78
3.23567	80
3.23933	80
3.24300	75
3.24667	68
3.25033	61
3.25400	55
3.25767	47
3.26133	41
3.26500	41
3.26867	47
3.27233	55
3.27600	60
3.27967	59
3.28333	52
3.28700	45
3.29067	43
3.29433	43
3.29800	43
3.30167	46
3.30533	49
3.30900	49
3.31267	46
3.31633	43
3.32000	43
3.32367	48
3.32733	53
3.33100	61
3.33467	68
3.33833	74
3.34200	74
3.34567	65
3.34933	50
3.35300	40
3.35667	35
3.36033	31
3.36400	31
3.36767	32
3.37133	34
3.37500	34
3.37867	36
3.38233	43
3.38600	52
3.38967	63
3.39333	66
3.39700	63
3.40067	58
3.40433	51
3.40800	42
3.41167	33
3.41533	29
3.41900	28
3.42267	27
3.42633	28
3.43000	34
3.43367	47
3.43733	60
3.44100	65
3.44467	62
3.44833	60
3.45200	59
3.45567	58
3.45933	56
3.46300	51
3.46667	48
3.47033	48
3.47400	48
3.47767	49
3.48133	51
3.48500	52
3.48867	49
3.49233	40
3.49600	30
3.49967	21
3.50333	16
3.50700	14
3.51067	19
3.51433	25
3.51800	31
3.52167	33
3.52533	33
3.52900	33
3.53267	34
3.53633	35
3.54000	29
3.54367	25
3.54733	23
3.55100	21
3.55467	22
3.55833	26
3.56200	31
3.56567	35
3.56933	40
3.57300	43
3.57667	47
3.58033	53
3.58400	56
3.58767	55
3.59133	55
3.59500	53
3.59867	51
3.60233	46
3.60600	38
3.60967	32
3.61333	27
3.61700	21
3.62067	16
3.62433	9
3.62800	7
3.63167	10
3.63533	16
3.63900	20
3.64267	23
3.64633	26
3.65000	27
3.65367	27
3.65733	26
3.66100	22
3.66467	17
3.66833	12
3.67200	9
3.67567	7
3.67933	6
3.68300	10
3.68667	18
3.69033	26
3.69400	29
3.69767	24
3.70133	14
3.70500	11
3.70867	5
3.71233	1
3.71600	-0
3.71967	2
3.72333	2
3.72700	5
3.73067	7
3.73433	8
3.73800	7
3.74167	5
3.74533	5
3.74900	7
3.75267	11
3.75633	14
3.76000	13
3.76367	17
3.76733	26
3.77100	31
3.77467	29
3.77833	28
3.78200	22
3.78567	17
3.78933	17
3.79300	17
3.79667	17
3.80033	12
3.80400	6
3.80767	1
3.81133	-2
3.81500	-5
3.81867	-10
3.82233	-13
3.82600	-9
3.82967	-2
3.83333	4
3.83700	12
3.84067	17
3.84433	17
3.84800	24
3.85167	37
3.85533	47
3.85900	50
3.86267	45
3.86633	33
3.87000	18
3.87367	4
3.87733	-8
3.88100	-13
3.88467	-14
3.88833	-21
3.89200	-19
3.89567	-15
3.89933	-8
3.90300	4
3.90667	14
3.91033	16
3.91400	20
3.91767	28
3.92133	35
3.92500	35
3.92867	31
3.93233	26
3.93600	22
3.93967	17
3.94333	12
3.94700	6
3.95067	2
3.95433	-2
3.95800	-4
3.96167	-7
3.96533	-12
3.96900	-17
3.97267	-20
3.97633	-20
3.98000	-19
3.98367	-20
3.98733	-20
3.99100	-17
3.99467	-15
3.99833	-9

[Chromatogram (Ch2)]
Interval(msec)	220
# of Points	1091
Start Time(min)	0.002
End Time(min)	3.998
R.Time (min)	Intensity
0.00167	1
0.00533	1
0.00900	1
0.01267	1
0.01633	1
0.02000	1
0.02367	2
0.02733	1
0.03100	1
0.03467	1
0.03833	1
0.04200	1
0.04567	0
0.04933	0
0.05300	-0
0.05667	-0
0.06033	-1
0.06400	-1
0.06767	-1
0.07133	-2
0.07500	-2
0.07867	-2
0.08233	-2
0.08600	-2
0.08967	-1
0.09333	-1
0.09700	-1
0.10067	-1
0.10433	-0
0.10800	0
0.11167	1
0.11533	1
0.11900	1
0.12267	1
0.12633	1
0.13000	1
0.13367	1
0.13733	0
0.14100	-0
0.14467	-1
0.14833	-1
0.15200	-2
0.15567	-2
0.15933	-2
0.16300	-3
0.16667	-2
0.17033	-2
0.17400	-2
0.17767	-2
0.18133	-2
0.18500	-2
0.18867	-2
0.19233	-2
0.19600	-2
0.19967	-2
0.20333	-2
0.20700	-2
0.21067	-2
0.21433	-2
0.21800	-2
0.22167	-2
0.22533	-2
0.22900	-2
0.23267	-2
0.23633	-2
0.24000	-2
0.24367	-2
0.24733	-2
0.25100	-3
0.25467	-3
0.25833	-3
0.26200	-3
0.26567	-3
0.26933	-3
0.27300	-3
0.27667	-3
0.28033	-3
0.28400	-3
0.28767	-4
0.29133	-4
0.29500	-3
0.29867	-3
0.30233	-3
0.30600	-3
0.30967	-3
0.31333	-3
0.31700	-2
0.32067	-2
0.32433	-1
0.32800	-0
0.33167	0
0.33533	1
0.33900	1
0.34267	2
0.34633	2
0.35000	3
0.35367	3
0.35733	3
0.36100	3
0.36467	2
0.36833	2
0.37200	2
0.37567	1
0.37933	1
0.38300	0
0.38667	-0
0.39033	-1
0.39400	-1
0.39767	-1
0.40133	-2
0.40500	-2
0.40867	-2
0.41233	-2
0.41600	-2
0.41967	-2
0.42333	-1
0.42700	-1
0.43067	-1
0.43433	-1
0.43800	-1
0.44167	-1
0.44533	-1
0.44900	-1
0.45267	-1
0.45633	-1
0.46000	-2
0.46367	-1
0.46733	-1
0.47100	-2
0.47467	-2
0.47833	-2
0.48200	-3
0.48567	-3
0.48933	-3
0.49300	-3
0.49667	-3
0.50033	-3
0.50400	-3
0.50767	-3
0.51133	-3
0.51500	-3
0.51867	-3
0.52233	-3
0.52600	-3
0.52967	-3
0.53333	-3
0.53700	-3
0.54067	-3
0.54433	-3
0.54800	-2
0.55167	-2
0.55533	-2
0.55900	-2
0.56267	-2
0.56633	-1
0.57000	-1
0.57367	-1
0.57733	-1
0.58100	-1
0.58467	-1
0.58833	-1
0.59200	-1
0.59567	-1
0.59933	-1
0.60300	-2
0.60667	-2
0.61033	-2
0.61400	-2
0.61767	-2
0.62133	-3
0.62500	-3
0.62867	-3
0.63233	-3
0.63600	-3
0.63967	-3
0.64333	-3
0.64700	-3
0.65067	-3
0.65433	-3
0.65800	-3
0.66167	-4
0.66533	-4
0.66900	-4
0.67267	-4
0.67633	-5
0.68000	-5
0.68367	-5
0.68733	-5
0.69100	-5
0.69467	-5
0.69833	-5
0.70200	-5
0.70567	-5
0.70933	-4
0.71300	-4
0.71667	-4
0.72033	-3
0.72400	-3
0.72767	-3
0.73133	-2
0.73500	-2
0.73867	-2
0.74233	-2
0.74600	-2
0.74967	-3
0.75333	-3
0.75700	-3
0.76067	-3
0.76433	-3
0.76800	-3
0.77167	-3
0.77533	-3
0.77900	-3
0.78267	-3
0.78633	-3
0.79000	-3
0.79367	-3
0.79733	-3
0.80100	-3
0.80467	-3
0.80833	-3
0.81200	-3
0.81567	-3
0.81933	-3
0.82300	-2
0.82667	-2
0.83033	-2
0.83400	-2
0.83767	-3
0.84133	-3
0.84500	-3
0.84867	-3
0.85233	-3
0.85600	-3
0.85967	-4
0.86333	-4
0.86700	-5
0.87067	-5
0.87433	-5
0.87800	-5
0.88167	-5
0.88533	-5
0.88900	-5
0.89267	-5
0.89633	-5
0.90000	-4
0.90367	-4
0.90733	-4
0.91100	-4
0.91467	-5
0.91833	-5
0.92200	-5
0.92567	-5
0.92933	-5
0.93300	-4
0.93667	-4
0.94033	-4
0.94400	-4
0.94767	-4
0.95133	-5
0.95500	-5
0.95867	-4
0.96233	-4
0.96600	-4
0.96967	-4
0.97333	-3
0.97700	-3
0.98067	-2
0.98433	-2
0.98800	-2
0.99167	-2
0.99533	-2
0.99900	-2
1.00267	-1
1.00633	-1
1.01000	-1
1.01367	-1
1.01733	-1
1.02100	-0
1.02467	0
1.02833	0
1.03200	1
1.03567	1
1.03933	1
1.04300	1
1.04667	1
1.05033	1
1.05400	1
1.05767	1
1.06133	1
1.06500	1
1.06867	1
1.07233	1
1.07600	1
1.07967	1
1.08333	0
1.08700	0
1.09067	-0
1.09433	-1
1.09800	-2
1.10167	-2
1.10533	-3
1.10900	-3
1.11267	-4
1.11633	-4
1.12000	-3
1.12367	-3
1.12733	-3
1.13100	-3
1.13467	-3
1.13833	-2
1.14200	-2
1.14567	-2
1.14933	-3
1.15300	-3
1.15667	-3
1.16033	-3
1.16400	-3
1.16767	-3
1.17133	-3
1.17500	-4
1.17867	-4
1.18233	-4
1.18600	-4
1.18967	-4
1.19333	-4
1.19700	-4
1.20067	-4
1.20433	-4
1.20800	-4
1.21167	-4
1.21533	-4
1.21900	-3
1.22267	-2
1.22633	-2
1.23000	-2
1.23367	-1
1.23733	-1
1.24100	-0
1.24467	-0
1.24833	0
1.25200	0
1.25567	0
1.25933	1
1.26300	1
1.26667	1
1.27033	1
1.27400	1
1.27767	1
1.28133	0
1.28500	0
1.28867	-0
1.29233	-1
1.29600	-1
1.29967	-1
1.30333	-1
1.30700	-1
1.31067	-2
1.31433	-2
1.31800	-2
1.32167	-3
1.32533	-3
1.32900	-3
1.33267	-3
1.33633	-4
1.34000	-4
1.34367	-4
1.34733	-4
1.35100	-4
1.35467	-4
1.35833	-4
1.36200	-4
1.36567	-3
1.36933	-3
1.37300	-3
1.37667	-2
1.38033	-2
1.38400	-2
1.38767	-2
1.39133	-2
1.39500	-2
1.39867	-2
1.40233	-2
1.40600	-2
1.40967	-2
1.41333	-2
1.41700	-2
1.42067	-3
1.42433	-3
1.42800	-3
1.43167	-3
1.43533	-3
1.43900	-3
1.44267	-3
1.44633	-3
1.45000	-3
1.45367	-3
1.45733	-3
1.46100	-3
1.46467	-4
1.46833	-4
1.47200	-4
1.47567	-5
1.47933	-5
1.48300	-5
1.48667	-5
1.49033	-5
1.49400	-5
1.49767	-5
1.50133	-5
1.50500	-5
1.50867	-4
1.51233	-4
1.51600	-4
1.51967	-4
1.52333	-3
1.52700	-3
1.53067	-3
1.53433	-3
1.53800	-3
1.54167	-3
1.54533	-3
1.54900	-3
1.55267	-3
1.55633	-3
1.56000	-3
1.56367	-3
1.56733	-3
1.57100	-3
1.57467	-3
1.57833	-3
1.58200	-3
1.58567	-3
1.58933	-3
1.59300	-3
1.59667	-4
1.60033	-5
1.60400	-6
1.60767	-7
1.61133	-8
1.61500	-9
1.61867	-12
1.62233	-14
1.62600	-17
1.62967	-20
1.63333	-24
1.63700	-28
1.64067	-32
1.64433	-36
1.64800	-40
1.65167	-43
1.65533	-47
1.65900	-50
1.66267	-54
1.66633	-57
1.67000	-62
1.67367	-66
1.67733	-71
1.68100	-75
1.68467	-80
1.68833	-84
1.69200	-88
1.69567	-91
1.69933	-95
1.70300	-97
1.70667	-100
1.71033	-102
1.71400	-103
1.71767	-105
1.72133	-106
1.72500	-106
1.72867	-107
1.73233	-107
1.73600	-108
1.73967	-108
1.74333	-109
1.74700	-110
1.75067	-111
1.75433	-111
1.75800	-111
1.76167	-111
1.76533	-112
1.76900	-111
1.77267	-111
1.77633	-111
1.78000	-111
1.78367	-112
1.78733	-112
1.79100	-113
1.79467	-114
1.79833	-114
1.80200	-115
1.80567	-115
1.80933	-116
1.81300	-116
1.81667	-116
1.82033	-116
1.82400	-117
1.82767	-117
1.83133	-117
1.83500	-117
1.83867	-116
1.84233	-115
1.84600	-113
1.84967	-111
1.85333	-110
1.85700	-109
1.86067	-108
1.86433	-107
1.86800	-107
1.87167	-107
1.87533	-108
1.87900	-108
1.88267	-109
1.88633	-110
1.89000	-111
1.89367	-112
1.89733	-112
1.90100	-112
1.90467	-112
1.90833	-113
1.91200	-113
1.91567	-113
1.91933	-113
1.92300	-113
1.92667	-113
1.93033	-113
1.93400	-113
1.93767	-112
1.94133	-112
1.94500	-112
1.94867	-111
1.95233	-111
1.95600	-110
1.95967	-110
1.96333	-109
1.96700	-109
1.97067	-110
1.97433	-110
1.97800	-110
1.98167	-111
1.98533	-111
1.98900	-111
1.99267	-111
1.99633	-110
2.00000	-109
2.00367	-108
2.00733	-108
2.01100	-107
2.01467	-107
2.01833	-107
2.02200	-106
2.02567	-106
2.02933	-105
2.03300	-105
2.03667	-104
2.04033	-104
2.04400	-104
2.04767	-104
2.05133	-104
2.05500	-104
2.05867	-103
2.06233	-103
2.06600	-103
2.06967	-102
2.07333	-102
2.07700	-101
2.08067	-101
2.08433	-101
2.08800	-101
2.09167	-100
2.09533	-100
2.09900	-99
2.10267	-99
2.10633	-98
2.11000	-97
2.11367	-97
2.11733	-96
2.12100	-96
2.12467	-96
2.12833	-96
2.13200	-96
2.13567	-97
2.13933	-97
2.14300	-97
2.14667	-97
2.15033	-97
2.15400	-96
2.15767	-96
2.16133	-96
2.16500	-96
2.16867	-96
2.17233	-95
2.17600	-95
2.17967	-95
2.18333	-95
2.18700	-94
2.19067	-94
2.19433	-93
2.19800	-93
2.20167	-92
2.20533	-92
2.20900	-91
2.21267	-91
2.21633	-90
2.22000	-90
2.22367	-89
2.22733	-89
2.23100	-88
2.23467	-87
2.23833	-86
2.24200	-86
2.24567	-86
2.24933	-87
2.25300	-87
2.25667	-87
2.26033	-86
2.26400	-86
2.26767	-85
2.27133	-84
2.27500	-83
2.27867	-82
2.28233	-82
2.28600	-82
2.28967	-82
2.29333	-82
2.29700	-82
2.30067	-82
2.30433	-82
2.30800	-82
2.31167	-81
2.31533	-82
2.31900	-82
2.32267	-82
2.32633	-82
2.33000	-81
2.33367	-80
2.33733	-80
2.34100	-79
2.34467	-79
2.34833	-78
2.35200	-77
2.35567	-76
2.35933	-75
2.36300	-73
2.36667	-72
2.37033	-70
2.37400	-68
2.37767	-66
2.38133	-62
2.38500	-58
2.38867	-54
2.39233	-49
2.39600	-45
2.39967	-40
2.40333	-35
2.40700	-31
2.41067	-27
2.41433	-24
2.41800	-21
2.42167	-18
2.42533	-16
2.42900	-14
2.43267	-13
2.43633	-11
2.44000	-10
2.44367	-9
2.44733	-8
2.45100	-7
2.45467	-6
2.45833	-6
2.46200	-5
2.46567	-4
2.46933	-4
2.47300	-3
2.47667	-2
2.48033	-1
2.48400	0
2.48767	1
2.49133	2
2.49500	3
2.49867	4
2.50233	5
2.50600	6
2.50967	7
2.51333	8
2.51700	9
2.52067	9
2.52433	10
2.52800	10
2.53167	11
2.53533	11
2.53900	11
2.54267	12
2.54633	12
2.55000	13
2.55367	13
2.55733	13
2.56100	13
2.56467	14
2.56833	14
2.57200	14
2.57567	14
2.57933	15
2.58300	15
2.58667	15
2.59033	14
2.59400	14
2.59767	14
2.60133	14
2.60500	14
2.60867	14
2.61233	15
2.61600	15
2.61967	16
2.62333	16
2.62700	17
2.63067	17
2.63433	17
2.63800	17
2.64167	17
2.64533	17
2.64900	17
2.65267	18
2.65633	18
2.66000	18
2.66367	18
2.66733	19
2.67100	19
2.67467	19
2.67833	19
2.68200	19
2.68567	19
2.68933	20
2.69300	20
2.69667	20
2.70033	21
2.70400	22
2.70767	22
2.71133	22
2.71500	23
2.71867	23
2.72233	24
2.72600	24
2.72967	24
2.73333	24
2.73700	24
2.74067	23
2.74433	23
2.74800	23
2.75167	22
2.75533	22
2.75900	22
2.76267	22
2.76633	22
2.77000	22
2.77367	22
2.77733	23
2.78100	23
2.78467	24
2.78833	25
2.79200	25
2.79567	25
2.79933	25
2.80300	25
2.80667	25
2.81033	26
2.81400	26
2.81767	26
2.82133	26
2.82500	26
2.82867	26
2.83233	26
2.83600	26
2.83967	25
2.84333	25
2.84700	23
2.85067	19
2.85433	13
2.85800	4
2.86167	-9
2.86533	-26
2.86900	-47
2.87267	-72
2.87633	-102
2.88000	-136
2.88367	-174
2.88733	-215
2.89100	-260
2.89467	-309
2.89833	-359
2.90200	-412
2.90567	-466
2.90933	-521
2.91300	-577
2.91667	-632
2.92033	-687
2.92400	-741
2.92767	-793
2.93133	-845
2.93500	-897
2.93867	-955
2.94233	-1013
2.94600	-1064
2.94967	-1096
2.95333	-1103
2.95700	-1083
2.96067	-1041
2.96433	-981
2.96800	-909
2.97167	-831
2.97533	-750
2.97900	-670
2.98267	-593
2.98633	-522
2.99000	-455
2.99367	-395
2.99733	-342
3.00100	-294
3.00467	-252
3.00833	-215
3.01200	-183
3.01567	-155
3.01933	-132
3.02300	-111
3.02667	-93
3.03033	-77
3.03400	-64
3.03767	-53
3.04133	-43
3.04500	-35
3.04867	-27
3.05233	-21
3.05600	-16
3.05967	-12
3.06333	-8
3.06700	-5
3.07067	-2
3.07433	1
3.07800	3
3.08167	5
3.08533	6
3.08900	8
3.09267	9
3.09633	10
3.10000	11
3.10367	11
3.10733	12
3.11100	13
3.11467	13
3.11833	13
3.12200	14
3.12567	14
3.12933	15
3.13300	15
3.13667	16
3.14033	16
3.14400	17
3.14767	17
3.15133	17
3.15500	17
3.15867	17
3.16233	17
3.16600	17
3.16967	17
3.17333	17
3.17700	18
3.18067	18
3.18433	18
3.18800	19
3.19167	19
3.19533	19
3.19900	20
3.20267	20
3.20633	20
3.21000	20
3.21367	20
3.21733	21
3.22100	21
3.22467	21
3.22833	21
3.23200	21
3.23567	21
3.23933	21
3.24300	21
3.24667	21
3.25033	21
3.25400	21
3.25767	21
3.26133	22
3.26500	22
3.26867	22
3.27233	22
3.27600	22
3.27967	22
3.28333	22
3.28700	22
3.29067	23
3.29433	23
3.29800	23
3.30167	23
3.30533	24
3.30900	24
3.31267	24
3.31633	24
3.32000	25
3.32367	25
3.32733	25
3.33100	26
3.33467	26
3.33833	26
3.34200	26
3.34567	26
3.34933	26
3.35300	26
3.35667	26
3.36033	26
3.36400	26
3.36767	26
3.37133	26
3.37500	26
3.37867	27
3.38233	27
3.38600	27
3.38967	27
3.39333	28
3.39700	28
3.40067	28
3.40433	28
3.40800	28
3.41167	28
3.41533	28
3.41900	28
3.42267	28
3.42633	28
3.43000	29
3.43367	29
3.43733	29
3.44100	29
3.44467	29
3.44833	29
3.45200	29
3.45567	29
3.45933	29
3.46300	28
3.46667	28
3.47033	28
3.47400	28
3.47767	28
3.48133	28
3.48500	28
3.48867	27
3.49233	27
3.49600	27
3.49967	26
3.50333	26
3.50700	26
3.51067	26
3.51433	26
3.51800	26
3.52167	26
3.52533	26
3.52900	26
3.53267	26
3.53633	26
3.54000	26
3.54367	26
3.54733	26
3.55100	26
3.55467	26
3.55833	26
3.56200	26
3.56567	26
3.56933	26
3.57300	26
3.57667	26
3.58033	26
3.58400	26
3.58767	27
3.59133	27
3.59500	27
3.59867	27
3.60233	27
3.60600	27
3.60967	27
3.61333	27
3.61700	27
3.62067	26
3.62433	26
3.62800	26
3.63167	26
3.63533	26
3.63900	26
3.64267	26
3.64633	26
3.65000	25
3.65367	25
3.65733	25
3.66100	25
3.66467	25
3.66833	25
3.67200	25
3.67567	25
3.67933	25
3.68300	25
3.68667	25
3.69033	25
3.69400	26
3.69767	26
3.70133	26
3.70500	26
3.70867	26
3.71233	26
3.71600	26
3.71967	26
3.72333	27
3.72700	27
3.73067	26
3.73433	26
3.73800	27
3.74167	27
3.74533	27
3.74900	27
3.75267	26
3.75633	26
3.76000	26
3.76367	27
3.76733	27
3.77100	27
3.77467	27
3.77833	27
3.78200	27
3.78567	27
3.78933	27
3.79300	27
3.79667	27
3.80033	27
3.80400	27
3.80767	27
3.81133	27
3.81500	27
3.81867	27
3.82233	26
3.82600	26
3.82967	26
3.83333	25
3.83700	25
3.84067	24
3.84433	24
3.84800	24
3.85167	24
3.85533	24
3.85900	24
3.86267	24
3.86633	24
3.87000	24
3.87367	24
3.87733	24
3.88100	24
3.88467	24
3.88833	25
3.89200	25
3.89567	25
3.89933	25
3.90300	25
3.90667	25
3.91033	25
3.91400	25
3.91767	25
3.92133	26
3.92500	26
3.92867	26
3.93233	26
3.93600	26
3.93967	25
3.94333	25
3.94700	25
3.95067	25
3.95433	25
3.95800	25
3.96167	25
3.96533	25
3.96900	25
3.97267	25
3.97633	26
3.98000	26
3.98367	26
3.98733	26
3.99100	26
3.99467	26
3.99833	26

[Chromatogram (Ch3)]
Interval(msec)	220
# of Points	1091
Start Time(min)	0.002
End Time(min)	3.998
R.Time (min)	Intensity
0.00167	-0
0.00533	-1
0.00900	-2
0.01267	-2
0.01633	-1
0.02000	-2
0.02367	-4
0.02733	-2
0.03100	-1
0.03467	0
0.03833	-1
0.04200	-1
0.04567	-0
0.04933	-2
0.05300	-4
0.05667	-5
0.06033	-4
0.06400	-4
0.06767	-2
0.07133	2
0.07500	6
0.07867	3
0.08233	0
0.08600	-2
0.08967	-3
0.09333	-3
0.09700	-2
0.10067	-2
0.10433	-5
0.10800	-5
0.11167	-5
0.11533	-5
0.11900	-5
0.12267	-3
0.12633	-3
0.13000	-2
0.13367	-1
0.13733	1
0.14100	2
0.14467	1
0.14833	0
0.15200	-0
0.15567	1
0.15933	2
0.16300	1
0.16667	-0
0.17033	-2
0.17400	-4
0.17767	-2
0.18133	-0
0.18500	1
0.18867	1
0.19233	2
0.19600	3
0.19967	4
0.20333	4
0.20700	3
0.21067	4
0.21433	3
0.21800	2
0.22167	1
0.22533	-0
0.22900	-3
0.23267	-2
0.23633	1
0.24000	2
0.24367	4
0.24733	4
0.25100	4
0.25467	4
0.25833	2
0.26200	-1
0.26567	-3
0.26933	-4
0.27300	-4
0.27667	-3
0.28033	-2
0.28400	-2
0.28767	-3
0.29133	-5
0.29500	-5
0.29867	-6
0.30233	-5
0.30600	-6
0.30967	-6
0.31333	-5
0.31700	-3
0.32067	-3
0.32433	-3
0.32800	-2
0.33167	-1
0.33533	-2
0.33900	-2
0.34267	-1
0.34633	-3
0.35000	-4
0.35367	-6
0.35733	-7
0.36100	-7
0.36467	-6
0.36833	-3
0.37200	0
0.37567	0
0.37933	-2
0.38300	-2
0.38667	-1
0.39033	-1
0.39400	1
0.39767	3
0.40133	4
0.40500	1
0.40867	-3
0.41233	-6
0.41600	-6
0.41967	-2
0.42333	0
0.42700	-2
0.43067	-3
0.43433	-3
0.43800	-4
0.44167	-3
0.44533	-2
0.44900	-2
0.45267	-2
0.45633	-2
0.46000	-1
0.46367	-0
0.46733	-1
0.47100	-3
0.47467	-3
0.47833	-4
0.48200	-3
0.48567	-3
0.48933	-1
0.49300	0
0.49667	1
0.50033	-1
0.50400	-2
0.50767	-1
0.51133	-3
0.51500	-4
0.51867	-0
0.52233	2
0.52600	2
0.52967	2
0.53333	1
0.53700	-3
0.54067	-5
0.54433	-6
0.54800	-7
0.55167	-8
0.55533	-7
0.55900	-8
0.56267	-10
0.56633	-11
0.57000	-12
0.57367	-13
0.57733	-13
0.58100	-13
0.58467	-11
0.58833	-9
0.59200	-7
0.59567	-5
0.59933	-3
0.60300	-2
0.60667	-3
0.61033	-6
0.61400	-5
0.61767	-4
0.62133	-2
0.62500	1
0.62867	3
0.63233	3
0.63600	3
0.63967	4
0.64333	5
0.64700	4
0.65067	4
0.65433	5
0.65800	6
0.66167	6
0.66533	6
0.66900	3
0.67267	1
0.67633	1
0.68000	2
0.68367	3
0.68733	2
0.69100	3
0.69467	4
0.69833	4
0.70200	2
0.70567	-0
0.70933	-0
0.71300	1
0.71667	2
0.72033	2
0.72400	3
0.72767	2
0.73133	2
0.73500	2
0.73867	-0
0.74233	-1
0.74600	-1
0.74967	-0
0.75333	-0
0.75700	-1
0.76067	1
0.76433	2
0.76800	3
0.77167	4
0.77533	6
0.77900	6
0.78267	5
0.78633	4
0.79000	2
0.79367	3
0.79733	4
0.80100	6
0.80467	5
0.80833	4
0.81200	5
0.81567	5
0.81933	6
0.82300	5
0.82667	5
0.83033	5
0.83400	6
0.83767	7
0.84133	8
0.84500	8
0.84867	6
0.85233	4
0.85600	4
0.85967	7
0.86333	10
0.86700	10
0.87067	9
0.87433	5
0.87800	4
0.88167	3
0.88533	4
0.88900	6
0.89267	6
0.89633	6
0.90000	5
0.90367	3
0.90733	1
0.91100	0
0.91467	-1
0.91833	-1
0.92200	2
0.92567	5
0.92933	7
0.93300	8
0.93667	7
0.94033	6
0.94400	7
0.94767	8
0.95133	9
0.95500	9
0.95867	8
0.96233	9
0.96600	9
0.96967	9
0.97333	9
0.97700	8
0.98067	8
0.98433	7
0.98800	7
0.99167	7
0.99533	7
0.99900	9
1.00267	9
1.00633	10
1.01000	11
1.01367	10
1.01733	9
1.02100	9
1.02467	8
1.02833	8
1.03200	8
1.03567	8
1.03933	8
1.04300	6
1.04667	6
1.05033	5
1.05400	5
1.05767	6
1.06133	9
1.06500	10
1.06867	12
1.07233	13
1.07600	12
1.07967	9
1.08333	6
1.08700	5
1.09067	5
1.09433	4
1.09800	6
1.10167	7
1.10533	9
1.10900	9
1.11267	10
1.11633	10
1.12000	10
1.12367	7
1.12733	5
1.13100	4
1.13467	3
1.13833	3
1.14200	5
1.14567	5
1.14933	5
1.15300	3
1.15667	2
1.16033	4
1.16400	8
1.16767	9
1.17133	9
1.17500	10
1.17867	10
1.18233	10
1.18600	9
1.18967	11
1.19333	12
1.19700	12
1.20067	11
1.20433	9
1.20800	9
1.21167	10
1.21533	11
1.21900	13
1.22267	13
1.22633	13
1.23000	12
1.23367	10
1.23733	9
1.24100	8
1.24467	8
1.24833	10
1.25200	11
1.25567	10
1.25933	9
1.26300	9
1.26667	9
1.27033	9
1.27400	9
1.27767	9
1.28133	9
1.28500	10
1.28867	10
1.29233	11
1.29600	11
1.29967	12
1.30333	13
1.30700	12
1.31067	10
1.31433	11
1.31800	12
1.32167	10
1.32533	10
1.32900	11
1.33267	11
1.33633	13
1.34000	12
1.34367	11
1.34733	14
1.35100	15
1.35467	14
1.35833	14
1.36200	14
1.36567	13
1.36933	12
1.37300	11
1.37667	11
1.38033	13
1.38400	13
1.38767	11
1.39133	11
1.39500	11
1.39867	11
1.40233	10
1.40600	9
1.40967	9
1.41333	7
1.41700	7
1.42067	8
1.42433	10
1.42800	9
1.43167	9
1.43533	11
1.43900	12
1.44267	11
1.44633	10
1.45000	11
1.45367	13
1.45733	16
1.46100	17
1.46467	19
1.46833	20
1.47200	20
1.47567	20
1.47933	20
1.48300	17
1.48667	16
1.49033	16
1.49400	16
1.49767	17
1.50133	18
1.50500	18
1.50867	18
1.51233	17
1.51600	15
1.51967	13
1.52333	13
1.52700	17
1.53067	18
1.53433	19
1.53800	18
1.54167	17
1.54533	16
1.54900	15
1.55267	14
1.55633	14
1.56000	16
1.56367	16
1.56733	17
1.57100	17
1.57467	18
1.57833	19
1.58200	20
1.58567	20
1.58933	17
1.59300	17
1.59667	16
1.60033	16
1.60400	16
1.60767	17
1.61133	16
1.61500	15
1.61867	14
1.62233	14
1.62600	15
1.62967	16
1.63333	18
1.63700	19
1.64067	19
1.64433	18
1.64800	18
1.65167	18
1.65533	19
1.65900	21
1.66267	21
1.66633	23
1.67000	23
1.67367	22
1.67733	23
1.68100	24
1.68467	25
1.68833	26
1.69200	26
1.69567	27
1.69933	28
1.70300	30
1.70667	32
1.71033	33
1.71400	34
1.71767	36
1.72133	35
1.72500	36
1.72867	35
1.73233	33
1.73600	33
1.73967	34
1.74333	35
1.74700	35
1.75067	36
1.75433	37
1.75800	37
1.76167	37
1.76533	36
1.76900	36
1.77267	36
1.77633	35
1.78000	34
1.78367	33
1.78733	34
1.79100	38
1.79467	40
1.79833	42
1.80200	44
1.80567	42
1.80933	42
1.81300	43
1.81667	44
1.82033	43
1.82400	42
1.82767	41
1.83133	42
1.83500	42
1.83867	40
1.84233	40
1.84600	42
1.84967	44
1.85333	47
1.85700	49
1.86067	50
1.86433	49
1.86800	47
1.87167	47
1.87533	48
1.87900	48
1.88267	48
1.88633	49
1.89000	50
1.89367	51
1.89733	51
1.90100	51
1.90467	53
1.90833	55
1.91200	56
1.91567	57
1.91933	59
1.92300	59
1.92667	60
1.93033	61
1.93400	62
1.93767	63
1.94133	63
1.94500	63
1.94867	64
1.95233	65
1.95600	68
1.95967	69
1.96333	71
1.96700	75
1.97067	76
1.97433	75
1.97800	76
1.98167	77
1.98533	77
1.98900	76
1.99267	76
1.99633	77
2.00000	77
2.00367	77
2.00733	78
2.01100	77
2.01467	77
2.01833	79
2.02200	81
2.02567	82
2.02933	83
2.03300	86
2.03667	89
2.04033	91
2.04400	92
2.04767	93
2.05133	97
2.05500	99
2.05867	98
2.06233	98
2.06600	99
2.06967	100
2.07333	100
2.07700	100
2.08067	103
2.08433	104
2.08800	105
2.09167	107
2.09533	107
2.09900	107
2.10267	107
2.10633	109
2.11000	111
2.11367	110
2.11733	111
2.12100	111
2.12467	110
2.12833	110
2.13200	112
2.13567	116
2.13933	119
2.14300	120
2.14667	120
2.15033	119
2.15400	119
2.15767	122
2.16133	125
2.16500	127
2.16867	129
2.17233	129
2.17600	130
2.17967	131
2.18333	131
2.18700	133
2.19067	135
2.19433	137
2.19800	138
2.20167	138
2.20533	138
2.20900	139
2.21267	140
2.21633	141
2.22000	144
2.22367	147
2.22733	151
2.23100	152
2.23467	151
2.23833	149
2.24200	149
2.24567	152
2.24933	152
2.25300	151
2.25667	151
2.26033	154
2.26400	157
2.26767	159
2.27133	159
2.27500	160
2.27867	162
2.28233	163
2.28600	165
2.28967	167
2.29333	170
2.29700	171
2.30067	170
2.30433	172
2.30800	175
2.31167	177
2.31533	177
2.31900	176
2.32267	175
2.32633	175
2.33000	176
2.33367	176
2.33733	176
2.34100	179
2.34467	184
2.34833	186
2.35200	188
2.35567	189
2.35933	189
2.36300	190
2.36667	192
2.37033	193
2.37400	194
2.37767	194
2.38133	192
2.38500	189
2.38867	186
2.39233	185
2.39600	185
2.39967	187
2.40333	190
2.40700	192
2.41067	196
2.41433	199
2.41800	201
2.42167	202
2.42533	204
2.42900	207
2.43267	208
2.43633	206
2.44000	208
2.44367	252
2.44733	366
2.45100	486
2.45467	586
2.45833	637
2.46200	641
2.46567	621
2.46933	605
2.47300	598
2.47667	591
2.48033	573
2.48400	543
2.48767	506
2.49133	470
2.49500	439
2.49867	415
2.50233	399
2.50600	391
2.50967	391
2.51333	399
2.51700	413
2.52067	426
2.52433	436
2.52800	436
2.53167	424
2.53533	407
2.53900	387
2.54267	364
2.54633	341
2.55000	322
2.55367	307
2.55733	296
2.56100	286
2.56467	280
2.56833	273
2.57200	268
2.57567	266
2.57933	264
2.58300	262
2.58667	262
2.59033	265
2.59400	272
2.59767	276
2.60133	277
2.60500	275
2.60867	269
2.61233	258
2.61600	246
2.61967	233
2.62333	218
2.62700	205
2.63067	191
2.63433	177
2.63800	163
2.64167	151
2.64533	140
2.64900	130
2.65267	123
2.65633	116
2.66000	111
2.66367	107
2.66733	105
2.67100	103
2.67467	100
2.67833	101
2.68200	102
2.68567	105
2.68933	106
2.69300	107
2.69667	108
2.70033	109
2.70400	113
2.70767	119
2.71133	127
2.71500	132
2.71867	136
2.72233	140
2.72600	143
2.72967	146
2.73333	151
2.73700	154
2.74067	158
2.74433	163
2.74800	166
2.75167	167
2.75533	170
2.75900	173
2.76267	176
2.76633	179
2.77000	181
2.77367	182
2.77733	185
2.78100	188
2.78467	190
2.78833	190
2.79200	193
2.79567	196
2.79933	200
2.80300	205
2.80667	208
2.81033	209
2.81400	212
2.81767	216
2.82133	224
2.82500	239
2.82867	270
2.83233	330
2.83600	435
2.83967	609
2.84333	870
2.84700	1231
2.85067	1691
2.85433	2227
2.85800	2808
2.86167	3388
2.86533	3923
2.86900	4366
2.87267	4686
2.87633	4864
2.88000	4904
2.88367	4819
2.88733	4631
2.89100	4367
2.89467	4053
2.89833	3716
2.90200	3370
2.90567	3035
2.90933	2718
2.91300	2423
2.91667	2153
2.92033	1910
2.92400	1693
2.92767	1500
2.93133	1328
2.93500	1178
2.93867	1047
2.94233	932
2.94600	831
2.94967	747
2.95333	672
2.95700	606
2.96067	550
2.96433	501
2.96800	458
2.97167	422
2.97533	392
2.97900	365
2.98267	342
2.98633	320
2.99000	304
2.99367	288
2.99733	276
3.00100	268
3.00467	257
3.00833	248
3.01200	240
3.01567	235
3.01933	231
3.02300	229
3.02667	225
3.03033	221
3.03400	218
3.03767	215
3.04133	212
3.04500	210
3.04867	208
3.05233	207
3.05600	207
3.05967	206
3.06333	207
3.06700	207
3.07067	206
3.07433	205
3.07800	204
3.08167	205
3.08533	204
3.08900	205
3.09267	206
3.09633	207
3.10000	207
3.10367	207
3.10733	209
3.11100	210
3.11467	210
3.11833	211
3.12200	211
3.12567	211
3.12933	213
3.13300	214
3.13667	215
3.14033	213
3.14400	210
3.14767	208
3.15133	208
3.15500	210
3.15867	214
3.16233	217
3.16600	218
3.16967	219
3.17333	219
3.17700	219
3.18067	222
3.18433	224
3.18800	226
3.19167	227
3.19533	227
3.19900	223
3.20267	221
3.20633	225
3.21000	239
3.21367	262
3.21733	291
3.22100	326
3.22467	366
3.22833	409
3.23200	455
3.23567	503
3.23933	550
3.24300	596
3.24667	639
3.25033	675
3.25400	707
3.25767	738
3.26133	766
3.26500	789
3.26867	808
3.27233	824
3.27600	840
3.27967	853
3.28333	864
3.28700	875
3.29067	887
3.29433	896
3.29800	905
3.30167	911
3.30533	915
3.30900	918
3.31267	924
3.31633	929
3.32000	937
3.32367	945
3.32733	951
3.33100	956
3.33467	957
3.33833	957
3.34200	960
3.34567	965
3.34933	971
3.35300	978
3.35667	983
3.36033	986
3.36400	988
3.36767	990
3.37133	992
3.37500	995
3.37867	997
3.38233	997
3.38600	996
3.38967	995
3.39333	996
3.39700	994
3.40067	991
3.40433	990
3.40800	989
3.41167	989
3.41533	988
3.41900	986
3.42267	982
3.42633	979
3.43000	976
3.43367	974
3.43733	971
3.44100	968
3.44467	967
3.44833	965
3.45200	963
3.45567	959
3.45933	955
3.46300	952
3.46667	950
3.47033	947
3.47400	945
3.47767	941
3.48133	937
3.48500	933
3.48867	928
3.49233	925
3.49600	923
3.49967	921
3.50333	919
3.50700	917
3.51067	917
3.51433	916
3.51800	916
3.52167	915
3.52533	915
3.52900	915
3.53267	913
3.53633	911
3.54000	906
3.54367	903
3.54733	899
3.55100	897
3.55467	897
3.55833	896
3.56200	895
3.56567	894
3.56933	892
3.57300	890
3.57667	887
3.58033	883
3.58400	879
3.58767	875
3.59133	876
3.59500	876
3.59867	876
3.60233	876
3.60600	875
3.60967	872
3.61333	872
3.61700	869
3.62067	866
3.62433	863
3.62800	859
3.63167	855
3.63533	852
3.63900	849
3.64267	848
3.64633	847
3.65000	845
3.65367	842
3.65733	839
3.66100	838
3.66467	839
3.66833	839
3.67200	837
3.67567	835
3.67933	831
3.68300	827
3.68667	824
3.69033	823
3.69400	820
3.69767	819
3.70133	816
3.70500	813
3.70867	810
3.71233	806
3.71600	804
3.71967	803
3.72333	801
3.72700	800
3.73067	800
3.73433	797
3.73800	793
3.74167	787
3.74533	783
3.74900	781
3.75267	781
3.75633	778
3.76000	775
3.76367	773
3.76733	770
3.77100	766
3.77467	762
3.77833	761
3.78200	761
3.78567	759
3.78933	757
3.79300	756
3.79667	752
3.80033	749
3.80400	745
3.80767	742
3.81133	740
3.81500	740
3.81867	739
3.82233	737
3.82600	737
3.82967	735
3.83333	733
3.83700	730
3.84067	727
3.84433	727
3.84800	725
3.85167	723
3.85533	721
3.85900	717
3.86267	712
3.86633	709
3.87000	706
3.87367	705
3.87733	703
3.88100	702
3.88467	702
3.88833	700
3.89200	698
3.89567	695
3.89933	693
3.90300	691
3.90667	689
3.91033	688
3.91400	686
3.91767	684
3.92133	682
3.92500	681
3.92867	683
3.93233	684
3.93600	685
3.93967	683
3.94333	680
3.94700	679
3.95067	678
3.95433	676
3.95800	674
3.96167	671
3.96533	666
3.96900	664
3.97267	664
3.97633	664
3.98000	662
3.98367	660
3.98733	657
3.99100	657
3.99467	659
3.99833	655

[Status Trace (Column Oven Temperature)]
Interval(msec)	1000
# of Points	240
Start Time(min)	0.006
End Time(min)	3.990
Intensity Units	
Intensity Multiplier	1
R.Time (min)	Intensity
0.00630	35.03
0.02297	35.03
0.03963	35.01
0.05630	35.01
0.07297	35.01
0.08963	35.02
0.10630	35.01
0.12297	35.01
0.13963	35.01
0.15630	35.03
0.17297	35.02
0.18963	35.03
0.20630	35.02
0.22297	35.03
0.23963	35.02
0.25630	35.03
0.27297	35.04
0.28963	35.04
0.30630	35.03
0.32297	35.02
0.33963	34.99
0.35630	34.98
0.37297	34.98
0.38963	34.99
0.40630	34.99
0.42297	34.98
0.43963	34.98
0.45630	34.97
0.47297	34.98
0.48963	34.99
0.50630	35.00
0.52297	35.00
0.53963	35.00
0.55630	34.99
0.57297	34.98
0.58963	34.97
0.60630	34.98
0.62297	34.98
0.63963	34.98
0.65630	34.99
0.67297	35.01
0.68963	35.00
0.70630	35.00
0.72297	35.00
0.73963	34.99
0.75630	35.00
0.77297	35.00
0.78963	35.00
0.80630	35.00
0.82297	34.99
0.83963	34.99
0.85630	35.00
0.87297	35.02
0.88963	35.02
0.90630	35.03
0.92297	35.03
0.93963	35.03
0.95630	35.04
0.97297	35.03
0.98963	35.01
1.00630	34.99
1.02297	34.99
1.03963	34.98
1.05630	34.97
1.07297	34.96
1.08963	34.97
1.10630	34.98
1.12297	34.98
1.13963	34.97
1.15630	34.97
1.17297	34.98
1.18963	34.99
1.20630	35.01
1.22297	35.01
1.23963	35.00
1.25630	34.98
1.27297	34.97
1.28963	34.97
1.30630	34.97
1.32297	34.98
1.33963	35.00
1.35630	34.99
1.37297	34.99
1.38963	34.98
1.40630	34.98
1.42297	34.98
1.43963	34.98
1.45630	34.99
1.47297	34.99
1.48963	35.00
1.50630	35.00
1.52297	35.00
1.53963	35.00
1.55630	35.00
1.57297	35.00
1.58963	35.00
1.60630	35.05
1.62297	35.17
1.63963	35.36
1.65630	35.60
1.67297	35.92
1.68963	36.28
1.70630	36.64
1.72297	36.98
1.73963	37.32
1.75630	37.64
1.77297	37.97
1.78963	38.31
1.80630	38.65
1.82297	39.00
1.83963	39.31
1.85630	39.59
1.87297	39.92
1.88963	40.25
1.90630	40.60
1.92297	40.92
1.93963	41.27
1.95630	41.59
1.97297	41.92
1.98963	42.26
2.00630	42.58
2.02297	42.90
2.03963	43.21
2.05630	43.54
2.07297	43.86
2.08963	44.19
2.10630	44.52
2.12297	44.84
2.13963	45.17
2.15630	45.50
2.17297	45.84
2.18963	46.18
2.20630	46.51
2.22297	46.83
2.23963	47.16
2.25630	47.50
2.27297	47.81
2.28963	48.13
2.30630	48.46
2.32297	48.80
2.33963	49.13
2.35630	49.41
2.37297	49.62
2.38963	49.69
2.40630	49.69
2.42297	49.71
2.43963	49.70
2.45630	49.71
2.47297	49.73
2.48963	49.73
2.50630	49.73
2.52297	49.74
2.53963	49.75
2.55630	49.78
2.57297	49.79
2.58963	49.81
2.60630	49.82
2.62297	49.82
2.63963	49.83
2.65630	49.85
2.67297	49.85
2.68963	49.85
2.70630	49.85
2.72297	49.84
2.73963	49.85
2.75630	49.88
2.77297	49.89
2.78963	49.88
2.80630	49.87
2.82297	49.87
2.83963	49.86
2.85630	49.86
2.87297	49.87
2.88963	49.89
2.90630	49.90
2.92297	49.91
2.93963	49.93
2.95630	49.96
2.97297	49.98
2.98963	49.99
3.00630	50.01
3.02297	50.02
3.03963	50.02
3.05630	50.02
3.07297	50.02
3.08963	50.02
3.10630	50.03
3.12297	50.04
3.13963	50.03
3.15630	50.05
3.17297	50.07
3.18963	50.07
3.20630	50.08
3.22297	50.08
3.23963	50.09
3.25630	50.10
3.27297	50.11
3.28963	50.11
3.30630	50.11
3.32297	50.10
3.33963	50.09
3.35630	50.08
3.37297	50.07
3.38963	50.07
3.40630	50.05
3.42297	50.04
3.43963	50.03
3.45630	50.02
3.47297	50.01
3.48963	50.02
3.50630	50.03
3.52297	50.03
3.53963	50.03
3.55630	50.03
3.57297	50.03
3.58963	50.01
3.60630	50.01
3.62297	50.02
3.63963	50.02
3.65630	50.03
3.67297	50.04
3.68963	50.03
3.70630	50.02
3.72297	50.02
3.73963	50.02
3.75630	50.03
3.77297	50.03
3.78963	50.03
3.80630	50.03
3.82297	50.03
3.83963	50.05
3.85630	50.05
3.87297	50.07
3.88963	50.07
3.90630	50.07
3.92297	50.08
3.93963	50.09
3.95630	50.10
3.97297	50.10
3.98963	50.09

[Status Trace (Injection Unit Temperature)]
Interval(msec)	1000
# of Points	240
Start Time(min)	0.006
End Time(min)	3.990
Intensity Units	
Intensity Multiplier	1
R.Time (min)	Intensity
0.00630	99.97
0.02297	99.98
0.03963	99.98
0.05630	99.98
0.07297	99.98
0.08963	99.98
0.10630	99.98
0.12297	99.98
0.13963	99.98
0.15630	99.98
0.17297	99.98
0.18963	99.98
0.20630	99.98
0.22297	99.98
0.23963	99.99
0.25630	99.98
0.27297	99.98
0.28963	99.99
0.30630	99.99
0.32297	99.99
0.33963	99.99
0.35630	99.98
0.37297	99.99
0.38963	99.98
0.40630	99.99
0.42297	99.99
0.43963	99.99
0.45630	99.99
0.47297	99.99
0.48963	99.99
0.50630	99.98
0.52297	99.98
0.53963	99.99
0.55630	99.99
0.57297	99.99
0.58963	99.98
0.60630	99.99
0.62297	99.99
0.63963	99.99
0.65630	99.99
0.67297	99.98
0.68963	99.98
0.70630	99.99
0.72297	99.98
0.73963	99.99
0.75630	99.99
0.77297	99.98
0.78963	99.99
0.80630	99.98
0.82297	99.98
0.83963	99.98
0.85630	99.98
0.87297	99.98
0.88963	99.98
0.90630	99.98
0.92297	99.98
0.93963	99.98
0.95630	99.98
0.97297	99.98
0.98963	99.98
1.00630	99.98
1.02297	99.98
1.03963	99.98
1.05630	99.98
1.07297	99.98
1.08963	99.98
1.10630	99.97
1.12297	99.97
1.13963	99.98
1.15630	99.97
1.17297	99.98
1.18963	99.98
1.20630	99.97
1.22297	99.97
1.23963	99.98
1.25630	99.97
1.27297	99.97
1.28963	99.98
1.30630	99.98
1.32297	99.98
1.33963	99.97
1.35630	99.98
1.37297	99.97
1.38963	99.97
1.40630	99.97
1.42297	99.98
1.43963	99.97
1.45630	99.98
1.47297	99.98
1.48963	99.98
1.50630	99.98
1.52297	99.97
1.53963	99.97
1.55630	99.98
1.57297	99.98
1.58963	99.98
1.60630	99.98
1.62297	99.98
1.63963	99.97
1.65630	99.98
1.67297	99.98
1.68963	99.98
1.70630	99.98
1.72297	99.97
1.73963	99.98
1.75630	99.98
1.77297	99.97
1.78963	99.98
1.80630	99.97
1.82297	99.97
1.83963	99.97
1.85630	99.97
1.87297	99.97
1.88963	99.97
1.90630	99.97
1.92297	99.97
1.93963	99.97
1.95630	99.97
1.97297	99.97
1.98963	99.97
2.00630	99.97
2.02297	99.97
2.03963	99.97
2.05630	99.97
2.07297	99.96
2.08963	99.97
2.10630	99.97
2.12297	99.97
2.13963	99.97
2.15630	99.97
2.17297	99.97
2.18963	99.97
2.20630	99.97
2.22297	99.96
2.23963	99.96
2.25630	99.97
2.27297	99.96
2.28963	99.97
2.30630	99.97
2.32297	99.96
2.33963	99.97
2.35630	99.96
2.37297	99.96
2.38963	99.96
2.40630	99.97
2.42297	99.96
2.43963	99.97
2.45630	99.97
2.47297	99.97
2.48963	99.97
2.50630	99.97
2.52297	99.97
2.53963	99.97
2.55630	99.97
2.57297	99.97
2.58963	99.98
2.60630	99.98
2.62297	99.97
2.63963	99.98
2.65630	99.98
2.67297	99.98
2.68963	99.99
2.70630	99.99
2.72297	99.99
2.73963	99.99
2.75630	99.99
2.77297	99.99
2.78963	99.99
2.80630	100.00
2.82297	100.00
2.83963	100.00
2.85630	100.00
2.87297	100.00
2.88963	100.00
2.90630	100.00
2.92297	100.00
2.93963	100.01
2.95630	100.00
2.97297	100.01
2.98963	100.00
3.00630	100.01
3.02297	100.01
3.03963	100.01
3.05630	100.01
3.07297	100.02
3.08963	100.02
3.10630	100.02
3.12297	100.02
3.13963	100.02
3.15630	100.02
3.17297	100.02
3.18963	100.02
3.20630	100.02
3.22297	100.02
3.23963	100.02
3.25630	100.02
3.27297	100.02
3.28963	100.02
3.30630	100.02
3.32297	100.01
3.33963	100.02
3.35630	100.03
3.37297	100.03
3.38963	100.02
3.40630	100.03
3.42297	100.03
3.43963	100.03
3.45630	100.03
3.47297	100.03
3.48963	100.03
3.50630	100.03
3.52297	100.03
3.53963	100.03
3.55630	100.03
3.57297	100.03
3.58963	100.03
3.60630	100.03
3.62297	100.03
3.63963	100.03
3.65630	100.04
3.67297	100.03
3.68963	100.03
3.70630	100.03
3.72297	100.03
3.73963	100.04
3.75630	100.03
3.77297	100.04
3.78963	100.03
3.80630	100.03
3.82297	100.03
3.83963	100.03
3.85630	100.04
3.87297	100.03
3.88963	100.04
3.90630	100.04
3.92297	100.04
3.93963	100.04
3.95630	100.04
3.97297	100.04
3.98963	100.04

[Status Trace (Carrier Gas Pressure)]
Interval(msec)	1000
# of Points	240
Start Time(min)	0.006
End Time(min)	3.990
Intensity Units	
Intensity Multiplier	1
R.Time (min)	Intensity
0.00630	58.00
0.02297	55.56
0.03963	56.85
0.05630	59.07
0.07297	59.55
0.08963	58.12
0.10630	57.98
0.12297	58.01
0.13963	58.01
0.15630	58.01
0.17297	58.00
0.18963	58.00
0.20630	58.00
0.22297	58.00
0.23963	58.00
0.25630	58.00
0.27297	58.00
0.28963	58.00
0.30630	58.00
0.32297	58.00
0.33963	58.00
0.35630	58.00
0.37297	58.00
0.38963	58.00
0.40630	58.00
0.42297	58.00
0.43963	58.00
0.45630	58.00
0.47297	58.00
0.48963	58.00
0.50630	58.00
0.52297	58.00
0.53963	58.00
0.55630	58.00
0.57297	58.00
0.58963	58.00
0.60630	58.00
0.62297	58.00
0.63963	58.00
0.65630	58.00
0.67297	58.00
0.68963	58.00
0.70630	58.00
0.72297	58.00
0.73963	58.00
0.75630	58.00
0.77297	58.00
0.78963	58.00
0.80630	58.00
0.82297	58.00
0.83963	58.00
0.85630	58.00
0.87297	58.00
0.88963	58.00
0.90630	58.00
0.92297	58.00
0.93963	58.00
0.95630	58.00
0.97297	58.00
0.98963	58.00
1.00630	58.00
1.02297	58.00
1.03963	58.00
1.05630	58.00
1.07297	58.00
1.08963	58.00
1.10630	58.00
1.12297	58.00
1.13963	58.00
1.15630	58.00
1.17297	58.00
1.18963	58.00
1.20630	58.00
1.22297	58.00
1.23963	58.00
1.25630	58.00
1.27297	58.00
1.28963	58.00
1.30630	58.00
1.32297	58.00
1.33963	58.00
1.35630	58.00
1.37297	58.00
1.38963	58.00
1.40630	58.00
1.42297	58.00
1.43963	58.00
1.45630	58.00
1.47297	58.00
1.48963	58.00
1.50630	58.00
1.52297	58.00
1.53963	58.00
1.55630	58.00
1.57297	58.00
1.58963	58.00
1.60630	58.00
1.62297	58.00
1.63963	58.01
1.65630	58.00
1.67297	58.01
1.68963	58.01
1.70630	58.00
1.72297	58.00
1.73963	58.00
1.75630	58.00
1.77297	58.00
1.78963	58.00
1.80630	58.00
1.82297	58.00
1.83963	58.00
1.85630	58.00
1.87297	58.00
1.88963	58.00
1.90630	58.00
1.92297	58.00
1.93963	58.00
1.95630	58.00
1.97297	58.00
1.98963	58.00
2.00630	58.00
2.02297	58.00
2.03963	58.00
2.05630	58.00
2.07297	58.00
2.08963	58.00
2.10630	58.00
2.12297	58.00
2.13963	58.00
2.15630	58.00
2.17297	58.00
2.18963	58.00
2.20630	58.00
2.22297	58.00
2.23963	58.00
2.25630	58.00
2.27297	58.00
2.28963	58.00
2.30630	58.00
2.32297	58.00
2.33963	58.00
2.35630	58.00
2.37297	58.00
2.38963	57.99
2.40630	57.99
2.42297	58.00
2.43963	58.00
2.45630	58.00
2.47297	58.00
2.48963	58.00
2.50630	57.99
2.52297	57.99
2.53963	58.00
2.55630	58.00
2.57297	58.00
2.58963	58.00
2.60630	58.00
2.62297	58.00
2.63963	58.00
2.65630	58.00
2.67297	58.00
2.68963	58.00
2.70630	58.00
2.72297	58.00
2.73963	58.00
2.75630	58.00
2.77297	58.00
2.78963	58.00
2.80630	58.00
2.82297	58.00
2.83963	58.00
2.85630	58.00
2.87297	58.00
2.88963	58.00
2.90630	58.00
2.92297	58.00
2.93963	58.00
2.95630	58.00
2.97297	58.00
2.98963	58.00
3.00630	58.00
3.02297	58.00
3.03963	58.00
3.05630	58.00
3.07297	58.00
3.08963	58.00
3.10630	58.00
3.12297	58.00
3.13963	58.00
3.15630	58.00
3.17297	58.00
3.18963	58.00
3.20630	58.00
3.22297	58.00
3.23963	58.00
3.25630	58.00
3.27297	58.00
3.28963	58.00
3.30630	58.00
3.32297	58.00
3.33963	58.00
3.35630	58.00
3.37297	58.00
3.38963	58.00
3.40630	58.00
3.42297	58.00
3.43963	58.00
3.45630	58.00
3.47297	58.00
3.48963	58.00
3.50630	58.00
3.52297	58.00
3.53963	58.00
3.55630	58.00
3.57297	58.00
3.58963	58.00
3.60630	58.00
3.62297	58.00
3.63963	58.00
3.65630	58.00
3.67297	58.00
3.68963	58.00
3.70630	58.00
3.72297	58.00
3.73963	58.00
3.75630	58.00
3.77297	58.00
3.78963	58.00
3.80630	58.00
3.82297	58.00
3.83963	58.00
3.85630	58.00
3.87297	58.00
3.88963	58.00
3.90630	58.00
3.92297	58.00
3.93963	58.00
3.95630	58.00
3.97297	58.00
3.98963	58.00

[Status Trace (Carrier Gas Flow)]
Interval(msec)	1000
# of Points	240
Start Time(min)	0.006
End Time(min)	3.990
Intensity Units	
Intensity Multiplier	1
R.Time (min)	Intensity
0.00630	34.52
0.02297	34.54
0.03963	34.55
0.05630	34.55
0.07297	34.50
0.08963	34.52
0.10630	34.52
0.12297	34.51
0.13963	34.52
0.15630	34.51
0.17297	34.51
0.18963	34.52
0.20630	34.52
0.22297	34.52
0.23963	34.52
0.25630	34.52
0.27297	34.52
0.28963	34.52
0.30630	34.52
0.32297	34.52
0.33963	34.52
0.35630	34.51
0.37297	34.52
0.38963	34.52
0.40630	34.52
0.42297	34.52
0.43963	34.52
0.45630	34.52
0.47297	34.52
0.48963	34.52
0.50630	34.52
0.52297	34.52
0.53963	34.52
0.55630	34.51
0.57297	34.51
0.58963	34.51
0.60630	34.52
0.62297	34.52
0.63963	34.52
0.65630	34.52
0.67297	34.52
0.68963	34.52
0.70630	34.51
0.72297	34.52
0.73963	34.52
0.75630	34.52
0.77297	34.52
0.78963	34.52
0.80630	34.52
0.82297	34.52
0.83963	34.52
0.85630	34.52
0.87297	34.52
0.88963	34.52
0.90630	34.52
0.92297	34.52
0.93963	34.52
0.95630	34.52
0.97297	34.51
0.98963	34.52
1.00630	34.52
1.02297	34.52
1.03963	34.52
1.05630	34.52
1.07297	34.52
1.08963	34.52
1.10630	34.52
1.12297	34.52
1.13963	34.52
1.15630	34.52
1.17297	34.52
1.18963	34.52
1.20630	34.52
1.22297	34.51
1.23963	34.52
1.25630	34.53
1.27297	34.52
1.28963	34.52
1.30630	34.52
1.32297	34.52
1.33963	34.52
1.35630	34.52
1.37297	34.52
1.38963	34.52
1.40630	34.52
1.42297	34.52
1.43963	34.52
1.45630	34.52
1.47297	34.52
1.48963	34.52
1.50630	34.52
1.52297	34.52
1.53963	34.52
1.55630	34.52
1.57297	34.52
1.58963	34.52
1.60630	34.52
1.62297	34.52
1.63963	34.52
1.65630	34.52
1.67297	34.52
1.68963	34.52
1.70630	34.52
1.72297	34.52
1.73963	34.52
1.75630	34.52
1.77297	34.52
1.78963	34.51
1.80630	34.52
1.82297	34.52
1.83963	34.52
1.85630	34.52
1.87297	34.51
1.88963	34.52
1.90630	34.52
1.92297	34.52
1.93963	34.52
1.95630	34.52
1.97297	34.52
1.98963	34.52
2.00630	34.52
2.02297	34.51
2.03963	34.52
2.05630	34.52
2.07297	34.52
2.08963	34.51
2.10630	34.52
2.12297	34.52
2.13963	34.52
2.15630	34.52
2.17297	34.52
2.18963	34.52
2.20630	34.52
2.22297	34.52
2.23963	34.52
2.25630	34.52
2.27297	34.52
2.28963	34.52
2.30630	34.52
2.32297	34.52
2.33963	34.52
2.35630	34.51
2.37297	34.52
2.38963	34.52
2.40630	34.52
2.42297	34.52
2.43963	34.52
2.45630	34.52
2.47297	34.52
2.48963	34.52
2.50630	34.43
2.52297	34.52
2.53963	34.52
2.55630	34.52
2.57297	34.52
2.58963	34.52
2.60630	34.52
2.62297	34.52
2.63963	34.52
2.65630	34.52
2.67297	34.52
2.68963	34.51
2.70630	34.52
2.72297	34.52
2.73963	34.52
2.75630	34.52
2.77297	34.52
2.78963	34.52
2.80630	34.52
2.82297	34.52
2.83963	34.52
2.85630	34.52
2.87297	34.52
2.88963	34.51
2.90630	34.52
2.92297	34.52
2.93963	34.52
2.95630	34.52
2.97297	34.52
2.98963	34.51
3.00630	34.52
3.02297	34.52
3.03963	34.52
3.05630	34.52
3.07297	34.52
3.08963	34.51
3.10630	34.52
3.12297	34.52
3.13963	34.52
3.15630	34.52
3.17297	34.52
3.18963	34.52
3.20630	34.52
3.22297	34.53
3.23963	34.52
3.25630	34.51
3.27297	34.52
3.28963	34.52
3.30630	34.52
3.32297	34.52
3.33963	34.52
3.35630	34.52
3.37297	34.52
3.38963	34.51
3.40630	34.52
3.42297	34.52
3.43963	34.52
3.45630	34.52
3.47297	34.52
3.48963	34.52
3.50630	34.52
3.52297	34.51
3.53963	34.52
3.55630	34.52
3.57297	34.52
3.58963	34.52
3.60630	34.51
3.62297	34.52
3.63963	34.52
3.65630	34.52
3.67297	34.52
3.68963	34.52
3.70630	34.52
3.72297	34.52
3.73963	34.52
3.75630	34.52
3.77297	34.52
3.78963	34.52
3.80630	34.52
3.82297	34.52
3.83963	34.52
3.85630	34.52
3.87297	34.52
3.88963	34.52
3.90630	34.52
3.92297	34.52
3.93963	34.52
3.95630	34.52
3.97297	34.52
3.98963	34.52

[Status Trace (Column Flow)]
Interval(msec)	1000
# of Points	240
Start Time(min)	0.006
End Time(min)	3.990
Intensity Units	
Intensity Multiplier	1
R.Time (min)	Intensity
0.00630	5.52
0.02297	5.24
0.03963	5.39
0.05630	5.65
0.07297	5.70
0.08963	5.54
0.10630	5.52
0.12297	5.52
0.13963	5.52
0.15630	5.52
0.17297	5.52
0.18963	5.52
0.20630	5.52
0.22297	5.52
0.23963	5.52
0.25630	5.52
0.27297	5.52
0.28963	5.52
0.30630	5.52
0.32297	5.52
0.33963	5.52
0.35630	5.52
0.37297	5.52
0.38963	5.52
0.40630	5.52
0.42297	5.52
0.43963	5.52
0.45630	5.52
0.47297	5.52
0.48963	5.52
0.50630	5.52
0.52297	5.52
0.53963	5.52
0.55630	5.52
0.57297	5.52
0.58963	5.52
0.60630	5.52
0.62297	5.52
0.63963	5.52
0.65630	5.52
0.67297	5.52
0.68963	5.52
0.70630	5.52
0.72297	5.52
0.73963	5.52
0.75630	5.52
0.77297	5.52
0.78963	5.52
0.80630	5.52
0.82297	5.52
0.83963	5.52
0.85630	5.52
0.87297	5.52
0.88963	5.52
0.90630	5.52
0.92297	5.52
0.93963	5.52
0.95630	5.52
0.97297	5.52
0.98963	5.52
1.00630	5.52
1.02297	5.52
1.03963	5.52
1.05630	5.52
1.07297	5.52
1.08963	5.52
1.10630	5.52
1.12297	5.52
1.13963	5.52
1.15630	5.52
1.17297	5.52
1.18963	5.52
1.20630	5.52
1.22297	5.52
1.23963	5.52
1.25630	5.52
1.27297	5.52
1.28963	5.52
1.30630	5.52
1.32297	5.52
1.33963	5.52
1.35630	5.52
1.37297	5.52
1.38963	5.52
1.40630	5.52
1.42297	5.52
1.43963	5.52
1.45630	5.52
1.47297	5.52
1.48963	5.52
1.50630	5.52
1.52297	5.52
1.53963	5.52
1.55630	5.52
1.57297	5.52
1.58963	5.52
1.60630	5.52
1.62297	5.52
1.63963	5.51
1.65630	5.50
1.67297	5.50
1.68963	5.48
1.70630	5.47
1.72297	5.46
1.73963	5.45
1.75630	5.44
1.77297	5.43
1.78963	5.42
1.80630	5.41
1.82297	5.40
1.83963	5.39
1.85630	5.38
1.87297	5.37
1.88963	5.36
1.90630	5.35
1.92297	5.34
1.93963	5.33
1.95630	5.32
1.97297	5.31
1.98963	5.30
2.00630	5.29
2.02297	5.28
2.03963	5.27
2.05630	5.26
2.07297	5.25
2.08963	5.25
2.10630	5.24
2.12297	5.23
2.13963	5.22
2.15630	5.21
2.17297	5.20
2.18963	5.19
2.20630	5.18
2.22297	5.17
2.23963	5.16
2.25630	5.15
2.27297	5.14
2.28963	5.13
2.30630	5.12
2.32297	5.11
2.33963	5.10
2.35630	5.10
2.37297	5.09
2.38963	5.09
2.40630	5.09
2.42297	5.09
2.43963	5.09
2.45630	5.09
2.47297	5.09
2.48963	5.09
2.50630	5.09
2.52297	5.09
2.53963	5.09
2.55630	5.09
2.57297	5.09
2.58963	5.09
2.60630	5.09
2.62297	5.09
2.63963	5.08
2.65630	5.08
2.67297	5.08
2.68963	5.08
2.70630	5.08
2.72297	5.08
2.73963	5.08
2.75630	5.08
2.77297	5.08
2.78963	5.08
2.80630	5.08
2.82297	5.08
2.83963	5.08
2.85630	5.08
2.87297	5.08
2.88963	5.08
2.90630	5.08
2.92297	5.08
2.93963	5.08
2.95630	5.08
2.97297	5.08
2.98963	5.08
3.00630	5.08
3.02297	5.08
3.03963	5.08
3.05630	5.08
3.07297	5.08
3.08963	5.08
3.10630	5.08
3.12297	5.08
3.13963	5.08
3.15630	5.08
3.17297	5.08
3.18963	5.08
3.20630	5.08
3.22297	5.08
3.23963	5.08
3.25630	5.08
3.27297	5.08
3.28963	5.08
3.30630	5.08
3.32297	5.08
3.33963	5.08
3.35630	5.08
3.37297	5.08
3.38963	5.08
3.40630	5.08
3.42297	5.08
3.43963	5.08
3.45630	5.08
3.47297	5.08
3.48963	5.08
3.50630	5.08
3.52297	5.08
3.53963	5.08
3.55630	5.08
3.57297	5.08
3.58963	5.08
3.60630	5.08
3.62297	5.08
3.63963	5.08
3.65630	5.08
3.67297	5.08
3.68963	5.08
3.70630	5.08
3.72297	5.08
3.73963	5.08
3.75630	5.08
3.77297	5.08
3.78963	5.08
3.80630	5.08
3.82297	5.08
3.83963	5.08
3.85630	5.08
3.87297	5.08
3.88963	5.08
3.90630	5.08
3.92297	5.08
3.93963	5.08
3.95630	5.08
3.97297	5.08
3.98963	5.08

[Status Trace (Linear Velocity)]
Interval(msec)	1000
# of Points	240
Start Time(min)	0.006
End Time(min)	3.990
Intensity Units	
Intensity Multiplier	1
R.Time (min)	Intensity
0.00630	39.01
0.02297	37.41
0.03963	38.26
0.05630	39.72
0.07297	40.03
0.08963	39.09
0.10630	39.00
0.12297	39.02
0.13963	39.02
0.15630	39.02
0.17297	39.02
0.18963	39.02
0.20630	39.02
0.22297	39.02
0.23963	39.02
0.25630	39.02
0.27297	39.01
0.28963	39.01
0.30630	39.01
0.32297	39.02
0.33963	39.02
0.35630	39.02
0.37297	39.02
0.38963	39.02
0.40630	39.02
0.42297	39.02
0.43963	39.02
0.45630	39.02
0.47297	39.02
0.48963	39.02
0.50630	39.02
0.52297	39.02
0.53963	39.02
0.55630	39.02
0.57297	39.02
0.58963	39.02
0.60630	39.02
0.62297	39.02
0.63963	39.02
0.65630	39.02
0.67297	39.02
0.68963	39.02
0.70630	39.02
0.72297	39.02
0.73963	39.02
0.75630	39.02
0.77297	39.02
0.78963	39.02
0.80630	39.02
0.82297	39.02
0.83963	39.02
0.85630	39.02
0.87297	39.02
0.88963	39.01
0.90630	39.01
0.92297	39.01
0.93963	39.01
0.95630	39.01
0.97297	39.01
0.98963	39.02
1.00630	39.02
1.02297	39.02
1.03963	39.02
1.05630	39.02
1.07297	39.02
1.08963	39.02
1.10630	39.02
1.12297	39.02
1.13963	39.02
1.15630	39.02
1.17297	39.02
1.18963	39.02
1.20630	39.02
1.22297	39.02
1.23963	39.02
1.25630	39.02
1.27297	39.02
1.28963	39.02
1.30630	39.02
1.32297	39.02
1.33963	39.02
1.35630	39.02
1.37297	39.02
1.38963	39.02
1.40630	39.02
1.42297	39.02
1.43963	39.02
1.45630	39.02
1.47297	39.02
1.48963	39.02
1.50630	39.02
1.52297	39.02
1.53963	39.02
1.55630	39.02
1.57297	39.02
1.58963	39.02
1.60630	39.01
1.62297	39.00
1.63963	38.99
1.65630	38.96
1.67297	38.93
1.68963	38.90
1.70630	38.86
1.72297	38.83
1.73963	38.80
1.75630	38.77
1.77297	38.73
1.78963	38.70
1.80630	38.67
1.82297	38.64
1.83963	38.61
1.85630	38.58
1.87297	38.55
1.88963	38.52
1.90630	38.49
1.92297	38.46
1.93963	38.42
1.95630	38.39
1.97297	38.36
1.98963	38.33
2.00630	38.30
2.02297	38.27
2.03963	38.24
2.05630	38.21
2.07297	38.18
2.08963	38.15
2.10630	38.12
2.12297	38.10
2.13963	38.07
2.15630	38.03
2.17297	38.01
2.18963	37.97
2.20630	37.94
2.22297	37.92
2.23963	37.89
2.25630	37.86
2.27297	37.83
2.28963	37.80
2.30630	37.77
2.32297	37.74
2.33963	37.71
2.35630	37.68
2.37297	37.67
2.38963	37.66
2.40630	37.66
2.42297	37.66
2.43963	37.66
2.45630	37.66
2.47297	37.66
2.48963	37.66
2.50630	37.65
2.52297	37.65
2.53963	37.65
2.55630	37.65
2.57297	37.65
2.58963	37.65
2.60630	37.65
2.62297	37.65
2.63963	37.65
2.65630	37.65
2.67297	37.65
2.68963	37.65
2.70630	37.65
2.72297	37.65
2.73963	37.65
2.75630	37.64
2.77297	37.64
2.78963	37.64
2.80630	37.64
2.82297	37.64
2.83963	37.64
2.85630	37.65
2.87297	37.64
2.88963	37.64
2.90630	37.64
2.92297	37.64
2.93963	37.64
2.95630	37.64
2.97297	37.64
2.98963	37.63
3.00630	37.63
3.02297	37.63
3.03963	37.63
3.05630	37.63
3.07297	37.63
3.08963	37.63
3.10630	37.63
3.12297	37.63
3.13963	37.63
3.15630	37.63
3.17297	37.63
3.18963	37.63
3.20630	37.63
3.22297	37.63
3.23963	37.63
3.25630	37.62
3.27297	37.62
3.28963	37.62
3.30630	37.62
3.32297	37.62
3.33963	37.63
3.35630	37.63
3.37297	37.63
3.38963	37.63
3.40630	37.63
3.42297	37.63
3.43963	37.63
3.45630	37.63
3.47297	37.63
3.48963	37.63
3.50630	37.63
3.52297	37.63
3.53963	37.63
3.55630	37.63
3.57297	37.63
3.58963	37.63
3.60630	37.63
3.62297	37.63
3.63963	37.63
3.65630	37.63
3.67297	37.63
3.68963	37.63
3.70630	37.63
3.72297	37.63
3.73963	37.63
3.75630	37.63
3.77297	37.63
3.78963	37.63
3.80630	37.63
3.82297	37.63
3.83963	37.63
3.85630	37.63
3.87297	37.63
3.88963	37.63
3.90630	37.63
3.92297	37.63
3.93963	37.63
3.95630	37.62
3.97297	37.62
3.98963	37.62

