[Header]
Application Name	LabSolutions
Version	5.110
Data File Name	C:\Users\User\Desktop\GC Analyses\Jack\Nachusa Grasslands Sampling\T3 Timepoint July 12th\T3_07122022_084.gcd
Output Date	3/14/2023
Output Time	3:43:36 PM

[File Information]
Type	Data File
Generated	3/13/2023 11:53:55 PM
Generated by	System Administrator
Modified	3/14/2023 12:00:47 AM
Modified by	System Administrator

[Sample Information]
Operator Name	System Administrator
Acquired	3/13/2023 11:56:47 PM
Sample Type	0:Unknown
Level	0
Sample Name	084
Sample ID	084
ISTD Amount1	1
ISTD Amount2	1
ISTD Amount3	1
ISTD Amount4	1
ISTD Amount5	1
ISTD Amount6	1
ISTD Amount7	1
ISTD Amount8	1
ISTD Amount9	1
ISTD Amount10	1
ISTD Amount11	1
ISTD Amount12	1
ISTD Amount13	1
ISTD Amount14	1
ISTD Amount15	1
ISTD Amount16	1
ISTD Amount17	1
ISTD Amount18	1
ISTD Amount19	1
ISTD Amount20	1
ISTD Amount21	1
ISTD Amount22	1
ISTD Amount23	1
ISTD Amount24	1
ISTD Amount25	1
ISTD Amount26	1
ISTD Amount27	1
ISTD Amount28	1
ISTD Amount29	1
ISTD Amount30	1
ISTD Amount31	1
ISTD Amount32	1
Sample Amount	1
Dilution Factor	1
Vial#	83
Injection Volume	1
Injection Count	1
Bar Code	

[Original Files]
Data File	C:\Users\User\Desktop\GC Analyses\Jack\Nachusa Grasslands Sampling\T3 Timepoint July 12th\T3_07122022_084.gcd
Method File	C:\LabSolutions\Data\GHG_4min_2022\ghg3_togas_w_acet_4 min_new_int.gcm
Batch File	C:\LabSolutions\Data\AutoSamplerTesting\T3_07122022.gcb
Report Format File	c:\LabSolutions\System\DEFAULT.lsr

[File Description]


[Configuration]
Instrument Name	C0B7VH3-Instrument1
Instrument #	1
Line #	1
# of Detectors	3
Detector ID	DET#1	DET#2	DET#3
Detector Name	FID	PTCD	ECD
# of Channels	1	1	1

[Peak Table(Ch1)]
# of Peaks	3
Peak#	R.Time	I.Time	F.Time	Area	Height	A/H	Conc.	Mark	ID#	Name	k'	Plate #	Plate Ht.	Tailing	Resolution	Sep.Factor	Area Ratio	Height Ratio	Conc. %	Norm Conc.
1	1.476	1.439	1.538	54010	26861	2.011	381.312	   	1	CO	0.000	9781	15.336	1.290	0.000	0.000	0	0	29.237	29.237
2	1.571	1.538	1.630	3793	1937	1.959	73.344	 V 	2	CH4	0.065	11772	12.742	1.112	1.621	0.000	0	0	5.624	5.624
3	1.996	1.949	2.389	3384996	1628612	2.078	849.542	   	3	CO2	0.353	17373	8.634	1.322	7.179	5.462	0	0	65.139	65.139

[Peak Table(Ch2)]
# of Peaks	0

[Peak Table(Ch3)]
# of Peaks	5
Peak#	R.Time	I.Time	F.Time	Area	Height	A/H	Conc.	Mark	ID#	Name	k'	Plate #	Plate Ht.	Tailing	Resolution	Sep.Factor	Area Ratio	Height Ratio	Conc. %	Norm Conc.
1	2.462	2.330	2.510	2151	702	3.066	0.000	   			0.000	11720	12.799	0.000	0.000	0.000	0	0	0.000	0.000
2	2.532	2.510	2.579	926	325	2.850	0.000	 V 			0.028	8024	18.694	0.000	0.683	0.000	0	0	0.000	0.000
3	2.601	2.579	2.678	488	139	3.514	0.000	 V 			0.057	2310	64.947	0.000	0.423	2.000	0	0	0.000	0.000
4	2.880	2.792	3.045	18023	4774	3.775	0.460	   	1	N2O	0.170	13258	11.314	1.502	1.761	3.000	0	0	100.000	100.000
5	3.489	3.162	3.617	1682	95	17.675	0.000	   			0.417	1295	115.793	0.713	2.496	2.456	0	0	0.000	0.000

[Compound Results(Ch1)]
# of IDs	6
ID#	Name	R.Time	Area	Height	Conc.	Curve	3rd	2nd	1st	Constant	Area Ratio	Height Ratio	Conc. %	Norm Conc.
1	CO	1.476	54010	26861	381.312	Linear	0.000000e+00	0.000000e+00	1.416423e+002	0.000000e+00	0	0	29.237	29.237
2	CH4	1.571	3793	1937	73.344	Linear	0.000000e+00	0.000000e+00	5.171738e+001	0.000000e+00	0	0	5.624	5.624
3	CO2	1.996	3384996	1628612	849.542	Linear	0.000000e+00	0.000000e+00	3.984494e+003	0.000000e+00	0	0	65.139	65.139
4	Ethylene	0.000	0	0	0.000	Linear	0.000000e+00	0.000000e+00	0.000000e+00	0.000000e+00	0	0	0.000	0.000
5	Acetylene	0.000	0	0	0.000	Linear	0.000000e+00	0.000000e+00	0.000000e+00	0.000000e+00	0	0	0.000	0.000
6	Ethane	0.000	0	0	0.000	Linear	0.000000e+00	0.000000e+00	0.000000e+00	0.000000e+00	0	0	0.000	0.000

[Compound Results(Ch2)]
# of IDs	5
ID#	Name	R.Time	Area	Height	Conc.	Curve	3rd	2nd	1st	Constant	Area Ratio	Height Ratio	Conc. %	Norm Conc.
1	Hydrogen	0.000	0	0	0.000	Linear	0.000000e+00	0.000000e+00	0.000000e+00	0.000000e+00	0	0	0.000	0.000
2	Oxygen	0.000	0	0	0.000	Linear	0.000000e+00	0.000000e+00	0.000000e+00	0.000000e+00	0	0	0.000	0.000
3	Nitrogen	0.000	0	0	0.000	Linear	0.000000e+00	0.000000e+00	0.000000e+00	0.000000e+00	0	0	0.000	0.000
4	Methane	0.000	0	0	0.000	Linear	0.000000e+00	0.000000e+00	0.000000e+00	0.000000e+00	0	0	0.000	0.000
5	Carbon Monoxide	0.000	0	0	0.000	Linear	0.000000e+00	0.000000e+00	0.000000e+00	0.000000e+00	0	0	0.000	0.000

[Compound Results(Ch3)]
# of IDs	2
ID#	Name	R.Time	Area	Height	Conc.	Curve	3rd	2nd	1st	Constant	Area Ratio	Height Ratio	Conc. %	Norm Conc.
1	N2O	2.880	18023	4774	0.460	Linear	0.000000e+00	0.000000e+00	3.915173e+004	0.000000e+00	0	0	100.000	100.000
2	SF6	0.000	0	0	0.000	Linear	0.000000e+00	0.000000e+00	0.000000e+00	0.000000e+00	0	0	0.000	0.000

[Group Results(Ch1)]
# of Groups	0

[Group Results(Ch2)]
# of Groups	0

[Group Results(Ch3)]
# of Groups	0

[Chromatogram (Ch1)]
Interval(msec)	220
# of Points	1091
Start Time(min)	0.002
End Time(min)	3.998
R.Time (min)	Intensity
0.00167	-31
0.00533	-27
0.00900	-24
0.01267	-26
0.01633	-29
0.02000	-29
0.02367	-29
0.02733	-29
0.03100	-28
0.03467	-23
0.03833	-18
0.04200	-15
0.04567	-13
0.04933	-12
0.05300	-15
0.05667	-22
0.06033	-29
0.06400	-30
0.06767	-27
0.07133	-22
0.07500	-16
0.07867	-5
0.08233	5
0.08600	9
0.08967	8
0.09333	5
0.09700	2
0.10067	2
0.10433	-5
0.10800	-14
0.11167	-22
0.11533	-26
0.11900	-27
0.12267	-26
0.12633	-21
0.13000	-16
0.13367	-13
0.13733	-11
0.14100	-8
0.14467	-7
0.14833	-5
0.15200	-2
0.15567	-1
0.15933	0
0.16300	-1
0.16667	-3
0.17033	-4
0.17400	-5
0.17767	-7
0.18133	-8
0.18500	-7
0.18867	-6
0.19233	-8
0.19600	-14
0.19967	-21
0.20333	-25
0.20700	-27
0.21067	-27
0.21433	-25
0.21800	-25
0.22167	-25
0.22533	-25
0.22900	-22
0.23267	-15
0.23633	-11
0.24000	-14
0.24367	-18
0.24733	-18
0.25100	-14
0.25467	-9
0.25833	-8
0.26200	-9
0.26567	-6
0.26933	3
0.27300	11
0.27667	13
0.28033	9
0.28400	6
0.28767	2
0.29133	-3
0.29500	-6
0.29867	-6
0.30233	-6
0.30600	-10
0.30967	-14
0.31333	-14
0.31700	-14
0.32067	-11
0.32433	-8
0.32800	-5
0.33167	-1
0.33533	-3
0.33900	-8
0.34267	-12
0.34633	-14
0.35000	-15
0.35367	-16
0.35733	-16
0.36100	-12
0.36467	-5
0.36833	-1
0.37200	-2
0.37567	-6
0.37933	-9
0.38300	-10
0.38667	-13
0.39033	-10
0.39400	-6
0.39767	-6
0.40133	-3
0.40500	5
0.40867	14
0.41233	18
0.41600	22
0.41967	30
0.42333	34
0.42700	32
0.43067	32
0.43433	35
0.43800	39
0.44167	44
0.44533	45
0.44900	44
0.45267	44
0.45633	44
0.46000	42
0.46367	42
0.46733	36
0.47100	25
0.47467	16
0.47833	12
0.48200	12
0.48567	15
0.48933	20
0.49300	28
0.49667	36
0.50033	41
0.50400	42
0.50767	44
0.51133	47
0.51500	49
0.51867	49
0.52233	45
0.52600	41
0.52967	38
0.53333	34
0.53700	30
0.54067	27
0.54433	29
0.54800	33
0.55167	40
0.55533	42
0.55900	38
0.56267	35
0.56633	32
0.57000	32
0.57367	35
0.57733	38
0.58100	41
0.58467	43
0.58833	42
0.59200	39
0.59567	35
0.59933	31
0.60300	29
0.60667	28
0.61033	22
0.61400	16
0.61767	13
0.62133	13
0.62500	15
0.62867	12
0.63233	10
0.63600	9
0.63967	12
0.64333	14
0.64700	17
0.65067	18
0.65433	16
0.65800	10
0.66167	5
0.66533	4
0.66900	8
0.67267	13
0.67633	19
0.68000	25
0.68367	31
0.68733	34
0.69100	37
0.69467	35
0.69833	28
0.70200	23
0.70567	20
0.70933	18
0.71300	18
0.71667	19
0.72033	17
0.72400	16
0.72767	13
0.73133	10
0.73500	12
0.73867	17
0.74233	22
0.74600	30
0.74967	32
0.75333	32
0.75700	31
0.76067	27
0.76433	24
0.76800	19
0.77167	15
0.77533	17
0.77900	20
0.78267	23
0.78633	27
0.79000	32
0.79367	35
0.79733	34
0.80100	26
0.80467	16
0.80833	6
0.81200	0
0.81567	-1
0.81933	3
0.82300	7
0.82667	9
0.83033	16
0.83400	27
0.83767	32
0.84133	33
0.84500	31
0.84867	26
0.85233	16
0.85600	6
0.85967	-2
0.86333	-8
0.86700	-10
0.87067	-8
0.87433	-4
0.87800	-0
0.88167	2
0.88533	1
0.88900	-1
0.89267	-1
0.89633	1
0.90000	2
0.90367	4
0.90733	1
0.91100	-6
0.91467	-12
0.91833	-14
0.92200	-12
0.92567	-7
0.92933	1
0.93300	6
0.93667	9
0.94033	16
0.94400	20
0.94767	17
0.95133	12
0.95500	5
0.95867	1
0.96233	2
0.96600	5
0.96967	6
0.97333	4
0.97700	-3
0.98067	-11
0.98433	-18
0.98800	-19
0.99167	-18
0.99533	-19
0.99900	-19
1.00267	-19
1.00633	-17
1.01000	-16
1.01367	-15
1.01733	-15
1.02100	-17
1.02467	-19
1.02833	-17
1.03200	-13
1.03567	-7
1.03933	-6
1.04300	-4
1.04667	-3
1.05033	-1
1.05400	3
1.05767	6
1.06133	4
1.06500	-2
1.06867	-9
1.07233	-16
1.07600	-19
1.07967	-18
1.08333	-16
1.08700	-16
1.09067	-14
1.09433	-9
1.09800	-3
1.10167	-3
1.10533	-7
1.10900	-11
1.11267	-13
1.11633	-14
1.12000	-18
1.12367	-23
1.12733	-27
1.13100	-31
1.13467	-34
1.13833	-32
1.14200	-27
1.14567	-22
1.14933	-16
1.15300	-9
1.15667	-3
1.16033	1
1.16400	5
1.16767	11
1.17133	12
1.17500	7
1.17867	-1
1.18233	-11
1.18600	-19
1.18967	-24
1.19333	-23
1.19700	-20
1.20067	-22
1.20433	-28
1.20800	-35
1.21167	-40
1.21533	-42
1.21900	-39
1.22267	-35
1.22633	-34
1.23000	-35
1.23367	-35
1.23733	-34
1.24100	-35
1.24467	-35
1.24833	-39
1.25200	-42
1.25567	-40
1.25933	-36
1.26300	-34
1.26667	-33
1.27033	-31
1.27400	-27
1.27767	-19
1.28133	-13
1.28500	-13
1.28867	-17
1.29233	-22
1.29600	-25
1.29967	-22
1.30333	-15
1.30700	-12
1.31067	-12
1.31433	-13
1.31800	-17
1.32167	-22
1.32533	-25
1.32900	-27
1.33267	-30
1.33633	-31
1.34000	-31
1.34367	-28
1.34733	-24
1.35100	-25
1.35467	-28
1.35833	-29
1.36200	-29
1.36567	-30
1.36933	-29
1.37300	-26
1.37667	-27
1.38033	-31
1.38400	-36
1.38767	-42
1.39133	-43
1.39500	-41
1.39867	-38
1.40233	-36
1.40600	-37
1.40967	-38
1.41333	-34
1.41700	-30
1.42067	-30
1.42433	-28
1.42800	-28
1.43167	-31
1.43533	-35
1.43900	-21
1.44267	34
1.44633	244
1.45000	1029
1.45367	3262
1.45733	7420
1.46100	12754
1.46467	18016
1.46833	22362
1.47200	25389
1.47567	26829
1.47933	26433
1.48300	24214
1.48667	20625
1.49033	16435
1.49400	12386
1.49767	8943
1.50133	6252
1.50500	4263
1.50867	2852
1.51233	1875
1.51600	1207
1.51967	762
1.52333	469
1.52700	275
1.53067	142
1.53433	51
1.53800	6
1.54167	21
1.54533	141
1.54900	396
1.55267	753
1.55633	1135
1.56000	1471
1.56367	1723
1.56733	1866
1.57100	1875
1.57467	1732
1.57833	1465
1.58200	1142
1.58567	830
1.58933	568
1.59300	367
1.59667	220
1.60033	114
1.60400	47
1.60767	7
1.61133	-20
1.61500	-37
1.61867	-49
1.62233	-61
1.62600	-72
1.62967	-80
1.63333	-87
1.63700	-92
1.64067	-92
1.64433	-86
1.64800	-81
1.65167	-82
1.65533	-84
1.65900	-82
1.66267	-79
1.66633	-76
1.67000	-75
1.67367	-75
1.67733	-79
1.68100	-84
1.68467	-87
1.68833	-89
1.69200	-92
1.69567	-90
1.69933	-85
1.70300	-79
1.70667	-75
1.71033	-73
1.71400	-73
1.71767	-72
1.72133	-72
1.72500	-66
1.72867	-61
1.73233	-57
1.73600	-52
1.73967	-52
1.74333	-52
1.74700	-57
1.75067	-62
1.75433	-64
1.75800	-64
1.76167	-62
1.76533	-59
1.76900	-55
1.77267	-54
1.77633	-54
1.78000	-54
1.78367	-55
1.78733	-59
1.79100	-64
1.79467	-72
1.79833	-75
1.80200	-71
1.80567	-64
1.80933	-56
1.81300	-53
1.81667	-55
1.82033	-59
1.82400	-58
1.82767	-57
1.83133	-57
1.83500	-56
1.83867	-49
1.84233	-37
1.84600	-20
1.84967	-12
1.85333	-17
1.85700	-27
1.86067	-35
1.86433	-41
1.86800	-46
1.87167	-51
1.87533	-56
1.87900	-63
1.88267	-74
1.88633	-80
1.89000	-78
1.89367	-71
1.89733	-66
1.90100	-63
1.90467	-60
1.90833	-54
1.91200	-47
1.91567	-47
1.91933	-47
1.92300	-43
1.92667	-39
1.93033	-35
1.93400	-34
1.93767	-42
1.94133	-51
1.94500	-56
1.94867	-53
1.95233	-17
1.95600	160
1.95967	1197
1.96333	6393
1.96700	26308
1.97067	84552
1.97433	214342
1.97800	436010
1.98167	732385
1.98533	1051674
1.98900	1334807
1.99267	1535926
1.99633	1628604
2.00000	1605937
2.00367	1480217
2.00733	1279835
2.01100	1043165
2.01467	807292
2.01833	598556
2.02200	429475
2.02567	301239
2.02933	208495
2.03300	143603
2.03667	99175
2.04033	69137
2.04400	48943
2.04767	35359
2.05133	26164
2.05500	19871
2.05867	15498
2.06233	12399
2.06600	10160
2.06967	8505
2.07333	7252
2.07700	6284
2.08067	5521
2.08433	4905
2.08800	4399
2.09167	3973
2.09533	3609
2.09900	3296
2.10267	3029
2.10633	2797
2.11000	2596
2.11367	2423
2.11733	2272
2.12100	2141
2.12467	2027
2.12833	1925
2.13200	1828
2.13567	1732
2.13933	1639
2.14300	1553
2.14667	1472
2.15033	1395
2.15400	1325
2.15767	1265
2.16133	1213
2.16500	1170
2.16867	1132
2.17233	1097
2.17600	1063
2.17967	1030
2.18333	1002
2.18700	977
2.19067	952
2.19433	924
2.19800	890
2.20167	855
2.20533	825
2.20900	795
2.21267	768
2.21633	749
2.22000	738
2.22367	727
2.22733	711
2.23100	698
2.23467	690
2.23833	687
2.24200	679
2.24567	665
2.24933	648
2.25300	634
2.25667	622
2.26033	608
2.26400	594
2.26767	583
2.27133	570
2.27500	558
2.27867	546
2.28233	531
2.28600	514
2.28967	498
2.29333	485
2.29700	472
2.30067	464
2.30433	460
2.30800	459
2.31167	457
2.31533	452
2.31900	445
2.32267	441
2.32633	438
2.33000	436
2.33367	440
2.33733	449
2.34100	453
2.34467	446
2.34833	439
2.35200	432
2.35567	421
2.35933	399
2.36300	377
2.36667	363
2.37033	358
2.37400	360
2.37767	362
2.38133	363
2.38500	366
2.38867	366
2.39233	366
2.39600	366
2.39967	374
2.40333	383
2.40700	383
2.41067	377
2.41433	367
2.41800	357
2.42167	350
2.42533	348
2.42900	347
2.43267	349
2.43633	353
2.44000	358
2.44367	358
2.44733	353
2.45100	344
2.45467	337
2.45833	339
2.46200	340
2.46567	334
2.46933	324
2.47300	316
2.47667	312
2.48033	311
2.48400	313
2.48767	312
2.49133	305
2.49500	294
2.49867	285
2.50233	281
2.50600	286
2.50967	297
2.51333	305
2.51700	304
2.52067	303
2.52433	305
2.52800	311
2.53167	317
2.53533	319
2.53900	319
2.54267	316
2.54633	313
2.55000	314
2.55367	313
2.55733	310
2.56100	307
2.56467	304
2.56833	299
2.57200	294
2.57567	289
2.57933	286
2.58300	284
2.58667	284
2.59033	285
2.59400	281
2.59767	280
2.60133	280
2.60500	280
2.60867	284
2.61233	289
2.61600	290
2.61967	288
2.62333	290
2.62700	294
2.63067	295
2.63433	291
2.63800	285
2.64167	283
2.64533	288
2.64900	299
2.65267	307
2.65633	305
2.66000	303
2.66367	307
2.66733	309
2.67100	306
2.67467	300
2.67833	291
2.68200	280
2.68567	270
2.68933	263
2.69300	260
2.69667	259
2.70033	257
2.70400	260
2.70767	267
2.71133	275
2.71500	278
2.71867	277
2.72233	278
2.72600	275
2.72967	266
2.73333	262
2.73700	263
2.74067	272
2.74433	282
2.74800	286
2.75167	288
2.75533	291
2.75900	295
2.76267	297
2.76633	297
2.77000	298
2.77367	299
2.77733	298
2.78100	296
2.78467	295
2.78833	296
2.79200	301
2.79567	308
2.79933	311
2.80300	308
2.80667	301
2.81033	293
2.81400	286
2.81767	283
2.82133	279
2.82500	276
2.82867	275
2.83233	276
2.83600	274
2.83967	275
2.84333	283
2.84700	293
2.85067	299
2.85433	300
2.85800	296
2.86167	291
2.86533	285
2.86900	283
2.87267	285
2.87633	286
2.88000	287
2.88367	289
2.88733	295
2.89100	300
2.89467	299
2.89833	300
2.90200	304
2.90567	309
2.90933	313
2.91300	317
2.91667	323
2.92033	323
2.92400	319
2.92767	313
2.93133	310
2.93500	308
2.93867	308
2.94233	312
2.94600	314
2.94967	311
2.95333	308
2.95700	304
2.96067	299
2.96433	295
2.96800	291
2.97167	289
2.97533	292
2.97900	298
2.98267	309
2.98633	317
2.99000	323
2.99367	323
2.99733	318
3.00100	313
3.00467	312
3.00833	314
3.01200	321
3.01567	325
3.01933	324
3.02300	317
3.02667	311
3.03033	306
3.03400	300
3.03767	294
3.04133	288
3.04500	287
3.04867	290
3.05233	294
3.05600	298
3.05967	301
3.06333	309
3.06700	317
3.07067	319
3.07433	322
3.07800	323
3.08167	322
3.08533	316
3.08900	311
3.09267	309
3.09633	304
3.10000	300
3.10367	303
3.10733	305
3.11100	301
3.11467	295
3.11833	289
3.12200	286
3.12567	283
3.12933	281
3.13300	278
3.13667	278
3.14033	280
3.14400	284
3.14767	290
3.15133	299
3.15500	309
3.15867	312
3.16233	310
3.16600	307
3.16967	304
3.17333	301
3.17700	301
3.18067	301
3.18433	296
3.18800	287
3.19167	279
3.19533	275
3.19900	271
3.20267	268
3.20633	267
3.21000	270
3.21367	272
3.21733	275
3.22100	276
3.22467	277
3.22833	283
3.23200	294
3.23567	300
3.23933	300
3.24300	297
3.24667	294
3.25033	291
3.25400	287
3.25767	285
3.26133	283
3.26500	281
3.26867	282
3.27233	282
3.27600	278
3.27967	275
3.28333	272
3.28700	278
3.29067	290
3.29433	303
3.29800	308
3.30167	303
3.30533	293
3.30900	283
3.31267	273
3.31633	265
3.32000	262
3.32367	260
3.32733	262
3.33100	263
3.33467	262
3.33833	260
3.34200	258
3.34567	258
3.34933	262
3.35300	267
3.35667	271
3.36033	275
3.36400	273
3.36767	270
3.37133	273
3.37500	277
3.37867	276
3.38233	272
3.38600	267
3.38967	264
3.39333	264
3.39700	269
3.40067	271
3.40433	273
3.40800	274
3.41167	275
3.41533	278
3.41900	282
3.42267	281
3.42633	275
3.43000	267
3.43367	255
3.43733	247
3.44100	241
3.44467	234
3.44833	229
3.45200	230
3.45567	237
3.45933	242
3.46300	243
3.46667	242
3.47033	245
3.47400	251
3.47767	257
3.48133	263
3.48500	271
3.48867	276
3.49233	277
3.49600	275
3.49967	271
3.50333	267
3.50700	263
3.51067	258
3.51433	250
3.51800	242
3.52167	237
3.52533	233
3.52900	229
3.53267	226
3.53633	227
3.54000	227
3.54367	228
3.54733	230
3.55100	232
3.55467	234
3.55833	236
3.56200	237
3.56567	240
3.56933	243
3.57300	243
3.57667	242
3.58033	239
3.58400	240
3.58767	247
3.59133	256
3.59500	264
3.59867	265
3.60233	261
3.60600	257
3.60967	255
3.61333	252
3.61700	246
3.62067	240
3.62433	233
3.62800	223
3.63167	211
3.63533	198
3.63900	190
3.64267	189
3.64633	192
3.65000	194
3.65367	195
3.65733	196
3.66100	198
3.66467	200
3.66833	202
3.67200	203
3.67567	204
3.67933	207
3.68300	211
3.68667	211
3.69033	215
3.69400	221
3.69767	222
3.70133	218
3.70500	213
3.70867	207
3.71233	204
3.71600	203
3.71967	203
3.72333	207
3.72700	213
3.73067	218
3.73433	221
3.73800	220
3.74167	215
3.74533	211
3.74900	209
3.75267	205
3.75633	199
3.76000	197
3.76367	196
3.76733	199
3.77100	204
3.77467	204
3.77833	200
3.78200	195
3.78567	189
3.78933	186
3.79300	187
3.79667	192
3.80033	191
3.80400	183
3.80767	178
3.81133	178
3.81500	180
3.81867	183
3.82233	189
3.82600	197
3.82967	210
3.83333	222
3.83700	222
3.84067	213
3.84433	200
3.84800	189
3.85167	181
3.85533	175
3.85900	175
3.86267	177
3.86633	179
3.87000	178
3.87367	181
3.87733	187
3.88100	196
3.88467	201
3.88833	201
3.89200	199
3.89567	200
3.89933	199
3.90300	196
3.90667	193
3.91033	190
3.91400	188
3.91767	185
3.92133	182
3.92500	179
3.92867	178
3.93233	178
3.93600	178
3.93967	177
3.94333	180
3.94700	186
3.95067	190
3.95433	193
3.95800	195
3.96167	199
3.96533	198
3.96900	189
3.97267	175
3.97633	163
3.98000	155
3.98367	158
3.98733	164
3.99100	168
3.99467	162
3.99833	150

[Chromatogram (Ch2)]
Interval(msec)	220
# of Points	1091
Start Time(min)	0.002
End Time(min)	3.998
R.Time (min)	Intensity
0.00167	0
0.00533	0
0.00900	0
0.01267	1
0.01633	1
0.02000	1
0.02367	1
0.02733	1
0.03100	2
0.03467	2
0.03833	2
0.04200	2
0.04567	2
0.04933	2
0.05300	1
0.05667	1
0.06033	1
0.06400	1
0.06767	0
0.07133	1
0.07500	1
0.07867	1
0.08233	1
0.08600	1
0.08967	1
0.09333	2
0.09700	2
0.10067	2
0.10433	3
0.10800	3
0.11167	3
0.11533	3
0.11900	3
0.12267	3
0.12633	2
0.13000	2
0.13367	2
0.13733	2
0.14100	2
0.14467	2
0.14833	2
0.15200	2
0.15567	1
0.15933	1
0.16300	1
0.16667	0
0.17033	0
0.17400	0
0.17767	0
0.18133	0
0.18500	0
0.18867	0
0.19233	-0
0.19600	-0
0.19967	-1
0.20333	-1
0.20700	-1
0.21067	-1
0.21433	-1
0.21800	-1
0.22167	-1
0.22533	-1
0.22900	-1
0.23267	-1
0.23633	-1
0.24000	-1
0.24367	-1
0.24733	-1
0.25100	-1
0.25467	-1
0.25833	-1
0.26200	-1
0.26567	-1
0.26933	-1
0.27300	-1
0.27667	-0
0.28033	-0
0.28400	-0
0.28767	-0
0.29133	-0
0.29500	0
0.29867	0
0.30233	0
0.30600	0
0.30967	1
0.31333	1
0.31700	1
0.32067	2
0.32433	2
0.32800	2
0.33167	1
0.33533	1
0.33900	1
0.34267	0
0.34633	0
0.35000	0
0.35367	0
0.35733	0
0.36100	1
0.36467	1
0.36833	1
0.37200	1
0.37567	1
0.37933	1
0.38300	1
0.38667	1
0.39033	2
0.39400	2
0.39767	2
0.40133	2
0.40500	2
0.40867	2
0.41233	2
0.41600	2
0.41967	2
0.42333	1
0.42700	1
0.43067	1
0.43433	0
0.43800	-0
0.44167	-1
0.44533	-1
0.44900	-1
0.45267	-1
0.45633	-1
0.46000	-1
0.46367	-1
0.46733	-1
0.47100	-1
0.47467	-0
0.47833	-0
0.48200	-0
0.48567	-0
0.48933	-0
0.49300	-0
0.49667	-0
0.50033	-0
0.50400	-0
0.50767	-0
0.51133	-0
0.51500	-1
0.51867	-1
0.52233	-1
0.52600	-1
0.52967	-1
0.53333	-1
0.53700	-1
0.54067	-1
0.54433	-1
0.54800	-1
0.55167	-1
0.55533	-2
0.55900	-2
0.56267	-2
0.56633	-2
0.57000	-2
0.57367	-2
0.57733	-2
0.58100	-2
0.58467	-2
0.58833	-1
0.59200	-1
0.59567	-1
0.59933	-0
0.60300	-0
0.60667	-0
0.61033	-0
0.61400	-0
0.61767	0
0.62133	0
0.62500	0
0.62867	0
0.63233	0
0.63600	0
0.63967	-0
0.64333	-0
0.64700	-0
0.65067	-0
0.65433	-0
0.65800	-0
0.66167	-0
0.66533	-1
0.66900	-1
0.67267	-1
0.67633	-1
0.68000	-1
0.68367	-1
0.68733	-0
0.69100	-0
0.69467	-1
0.69833	-1
0.70200	-1
0.70567	-1
0.70933	-1
0.71300	-1
0.71667	-1
0.72033	-2
0.72400	-2
0.72767	-2
0.73133	-2
0.73500	-2
0.73867	-2
0.74233	-2
0.74600	-2
0.74967	-2
0.75333	-2
0.75700	-3
0.76067	-3
0.76433	-3
0.76800	-3
0.77167	-3
0.77533	-3
0.77900	-3
0.78267	-3
0.78633	-3
0.79000	-2
0.79367	-2
0.79733	-2
0.80100	-2
0.80467	-2
0.80833	-2
0.81200	-1
0.81567	-1
0.81933	-1
0.82300	-1
0.82667	-1
0.83033	-1
0.83400	-0
0.83767	-0
0.84133	-0
0.84500	-0
0.84867	0
0.85233	0
0.85600	0
0.85967	0
0.86333	0
0.86700	1
0.87067	1
0.87433	1
0.87800	1
0.88167	1
0.88533	1
0.88900	1
0.89267	0
0.89633	0
0.90000	-0
0.90367	-1
0.90733	-1
0.91100	-2
0.91467	-2
0.91833	-2
0.92200	-3
0.92567	-3
0.92933	-3
0.93300	-3
0.93667	-3
0.94033	-3
0.94400	-3
0.94767	-3
0.95133	-3
0.95500	-3
0.95867	-3
0.96233	-3
0.96600	-3
0.96967	-3
0.97333	-3
0.97700	-3
0.98067	-2
0.98433	-2
0.98800	-2
0.99167	-2
0.99533	-2
0.99900	-2
1.00267	-2
1.00633	-3
1.01000	-3
1.01367	-3
1.01733	-3
1.02100	-3
1.02467	-3
1.02833	-3
1.03200	-2
1.03567	-2
1.03933	-1
1.04300	-1
1.04667	-1
1.05033	-0
1.05400	-0
1.05767	0
1.06133	0
1.06500	0
1.06867	0
1.07233	0
1.07600	0
1.07967	0
1.08333	0
1.08700	0
1.09067	0
1.09433	-0
1.09800	-1
1.10167	-1
1.10533	-2
1.10900	-2
1.11267	-3
1.11633	-3
1.12000	-3
1.12367	-3
1.12733	-4
1.13100	-4
1.13467	-4
1.13833	-4
1.14200	-4
1.14567	-4
1.14933	-4
1.15300	-4
1.15667	-4
1.16033	-4
1.16400	-3
1.16767	-3
1.17133	-3
1.17500	-3
1.17867	-2
1.18233	-2
1.18600	-2
1.18967	-2
1.19333	-2
1.19700	-2
1.20067	-2
1.20433	-2
1.20800	-1
1.21167	-1
1.21533	-1
1.21900	-1
1.22267	-1
1.22633	-0
1.23000	-0
1.23367	-0
1.23733	-0
1.24100	-1
1.24467	-1
1.24833	-1
1.25200	-1
1.25567	-1
1.25933	-2
1.26300	-2
1.26667	-2
1.27033	-3
1.27400	-3
1.27767	-3
1.28133	-3
1.28500	-3
1.28867	-3
1.29233	-3
1.29600	-3
1.29967	-3
1.30333	-3
1.30700	-4
1.31067	-4
1.31433	-4
1.31800	-4
1.32167	-4
1.32533	-4
1.32900	-4
1.33267	-4
1.33633	-4
1.34000	-4
1.34367	-3
1.34733	-3
1.35100	-3
1.35467	-3
1.35833	-2
1.36200	-2
1.36567	-2
1.36933	-2
1.37300	-2
1.37667	-2
1.38033	-2
1.38400	-2
1.38767	-2
1.39133	-1
1.39500	-1
1.39867	-1
1.40233	-1
1.40600	-0
1.40967	-0
1.41333	0
1.41700	0
1.42067	0
1.42433	0
1.42800	1
1.43167	1
1.43533	0
1.43900	0
1.44267	0
1.44633	-0
1.45000	-1
1.45367	-1
1.45733	-1
1.46100	-1
1.46467	-1
1.46833	-1
1.47200	-2
1.47567	-2
1.47933	-2
1.48300	-3
1.48667	-4
1.49033	-4
1.49400	-4
1.49767	-4
1.50133	-4
1.50500	-4
1.50867	-4
1.51233	-4
1.51600	-4
1.51967	-4
1.52333	-4
1.52700	-4
1.53067	-4
1.53433	-4
1.53800	-4
1.54167	-4
1.54533	-4
1.54900	-4
1.55267	-4
1.55633	-4
1.56000	-4
1.56367	-4
1.56733	-4
1.57100	-4
1.57467	-4
1.57833	-4
1.58200	-4
1.58567	-4
1.58933	-4
1.59300	-5
1.59667	-5
1.60033	-6
1.60400	-7
1.60767	-9
1.61133	-11
1.61500	-13
1.61867	-15
1.62233	-18
1.62600	-21
1.62967	-24
1.63333	-27
1.63700	-31
1.64067	-34
1.64433	-38
1.64800	-41
1.65167	-45
1.65533	-49
1.65900	-53
1.66267	-56
1.66633	-60
1.67000	-64
1.67367	-69
1.67733	-73
1.68100	-78
1.68467	-82
1.68833	-86
1.69200	-89
1.69567	-92
1.69933	-94
1.70300	-96
1.70667	-98
1.71033	-99
1.71400	-100
1.71767	-101
1.72133	-102
1.72500	-103
1.72867	-105
1.73233	-106
1.73600	-107
1.73967	-109
1.74333	-110
1.74700	-110
1.75067	-111
1.75433	-111
1.75800	-111
1.76167	-111
1.76533	-111
1.76900	-111
1.77267	-110
1.77633	-110
1.78000	-109
1.78367	-109
1.78733	-109
1.79100	-110
1.79467	-110
1.79833	-111
1.80200	-111
1.80567	-112
1.80933	-113
1.81300	-113
1.81667	-113
1.82033	-114
1.82400	-114
1.82767	-114
1.83133	-115
1.83500	-115
1.83867	-115
1.84233	-116
1.84600	-116
1.84967	-116
1.85333	-116
1.85700	-116
1.86067	-116
1.86433	-116
1.86800	-116
1.87167	-116
1.87533	-115
1.87900	-115
1.88267	-114
1.88633	-113
1.89000	-113
1.89367	-112
1.89733	-113
1.90100	-113
1.90467	-113
1.90833	-114
1.91200	-114
1.91567	-114
1.91933	-114
1.92300	-114
1.92667	-114
1.93033	-113
1.93400	-113
1.93767	-112
1.94133	-111
1.94500	-111
1.94867	-111
1.95233	-110
1.95600	-110
1.95967	-110
1.96333	-109
1.96700	-109
1.97067	-108
1.97433	-108
1.97800	-108
1.98167	-108
1.98533	-108
1.98900	-107
1.99267	-107
1.99633	-107
2.00000	-107
2.00367	-107
2.00733	-107
2.01100	-108
2.01467	-108
2.01833	-108
2.02200	-108
2.02567	-108
2.02933	-107
2.03300	-107
2.03667	-106
2.04033	-106
2.04400	-105
2.04767	-104
2.05133	-103
2.05500	-102
2.05867	-101
2.06233	-100
2.06600	-100
2.06967	-100
2.07333	-100
2.07700	-100
2.08067	-100
2.08433	-100
2.08800	-100
2.09167	-100
2.09533	-100
2.09900	-100
2.10267	-100
2.10633	-100
2.11000	-101
2.11367	-101
2.11733	-101
2.12100	-101
2.12467	-101
2.12833	-101
2.13200	-101
2.13567	-100
2.13933	-100
2.14300	-99
2.14667	-99
2.15033	-98
2.15400	-97
2.15767	-97
2.16133	-96
2.16500	-96
2.16867	-95
2.17233	-95
2.17600	-95
2.17967	-94
2.18333	-94
2.18700	-94
2.19067	-93
2.19433	-93
2.19800	-93
2.20167	-93
2.20533	-93
2.20900	-94
2.21267	-94
2.21633	-93
2.22000	-93
2.22367	-92
2.22733	-91
2.23100	-90
2.23467	-89
2.23833	-88
2.24200	-87
2.24567	-87
2.24933	-87
2.25300	-87
2.25667	-87
2.26033	-86
2.26400	-86
2.26767	-85
2.27133	-85
2.27500	-84
2.27867	-84
2.28233	-84
2.28600	-84
2.28967	-84
2.29333	-84
2.29700	-84
2.30067	-83
2.30433	-82
2.30800	-82
2.31167	-81
2.31533	-81
2.31900	-81
2.32267	-81
2.32633	-82
2.33000	-82
2.33367	-82
2.33733	-82
2.34100	-81
2.34467	-80
2.34833	-79
2.35200	-78
2.35567	-76
2.35933	-75
2.36300	-73
2.36667	-72
2.37033	-70
2.37400	-68
2.37767	-65
2.38133	-62
2.38500	-58
2.38867	-55
2.39233	-50
2.39600	-46
2.39967	-41
2.40333	-37
2.40700	-32
2.41067	-28
2.41433	-24
2.41800	-21
2.42167	-18
2.42533	-16
2.42900	-15
2.43267	-13
2.43633	-12
2.44000	-11
2.44367	-10
2.44733	-10
2.45100	-9
2.45467	-8
2.45833	-7
2.46200	-6
2.46567	-6
2.46933	-5
2.47300	-4
2.47667	-3
2.48033	-2
2.48400	-1
2.48767	0
2.49133	1
2.49500	2
2.49867	3
2.50233	4
2.50600	5
2.50967	6
2.51333	7
2.51700	7
2.52067	8
2.52433	9
2.52800	9
2.53167	9
2.53533	10
2.53900	10
2.54267	10
2.54633	10
2.55000	10
2.55367	11
2.55733	11
2.56100	12
2.56467	12
2.56833	13
2.57200	12
2.57567	12
2.57933	12
2.58300	12
2.58667	12
2.59033	12
2.59400	12
2.59767	12
2.60133	12
2.60500	12
2.60867	13
2.61233	13
2.61600	13
2.61967	13
2.62333	14
2.62700	13
2.63067	13
2.63433	13
2.63800	12
2.64167	12
2.64533	12
2.64900	13
2.65267	13
2.65633	14
2.66000	15
2.66367	16
2.66733	17
2.67100	18
2.67467	18
2.67833	19
2.68200	19
2.68567	19
2.68933	19
2.69300	19
2.69667	19
2.70033	18
2.70400	19
2.70767	19
2.71133	20
2.71500	20
2.71867	21
2.72233	21
2.72600	22
2.72967	23
2.73333	24
2.73700	25
2.74067	25
2.74433	25
2.74800	25
2.75167	24
2.75533	24
2.75900	24
2.76267	23
2.76633	23
2.77000	23
2.77367	23
2.77733	23
2.78100	23
2.78467	24
2.78833	24
2.79200	24
2.79567	24
2.79933	24
2.80300	25
2.80667	25
2.81033	25
2.81400	26
2.81767	26
2.82133	27
2.82500	27
2.82867	27
2.83233	27
2.83600	27
2.83967	26
2.84333	24
2.84700	22
2.85067	19
2.85433	13
2.85800	4
2.86167	-9
2.86533	-25
2.86900	-45
2.87267	-69
2.87633	-98
2.88000	-132
2.88367	-169
2.88733	-211
2.89100	-256
2.89467	-304
2.89833	-354
2.90200	-407
2.90567	-462
2.90933	-517
2.91300	-572
2.91667	-628
2.92033	-684
2.92400	-738
2.92767	-791
2.93133	-843
2.93500	-895
2.93867	-952
2.94233	-1011
2.94600	-1062
2.94967	-1095
2.95333	-1103
2.95700	-1085
2.96067	-1044
2.96433	-985
2.96800	-914
2.97167	-835
2.97533	-755
2.97900	-675
2.98267	-598
2.98633	-526
2.99000	-459
2.99367	-399
2.99733	-345
3.00100	-297
3.00467	-255
3.00833	-217
3.01200	-185
3.01567	-157
3.01933	-132
3.02300	-111
3.02667	-93
3.03033	-78
3.03400	-65
3.03767	-54
3.04133	-44
3.04500	-36
3.04867	-29
3.05233	-23
3.05600	-18
3.05967	-13
3.06333	-9
3.06700	-6
3.07067	-3
3.07433	-1
3.07800	1
3.08167	3
3.08533	4
3.08900	5
3.09267	6
3.09633	7
3.10000	8
3.10367	9
3.10733	10
3.11100	11
3.11467	11
3.11833	12
3.12200	12
3.12567	13
3.12933	13
3.13300	13
3.13667	14
3.14033	14
3.14400	15
3.14767	15
3.15133	15
3.15500	15
3.15867	16
3.16233	16
3.16600	16
3.16967	16
3.17333	16
3.17700	16
3.18067	16
3.18433	17
3.18800	17
3.19167	17
3.19533	17
3.19900	17
3.20267	17
3.20633	17
3.21000	17
3.21367	18
3.21733	18
3.22100	18
3.22467	18
3.22833	19
3.23200	19
3.23567	19
3.23933	20
3.24300	20
3.24667	20
3.25033	20
3.25400	21
3.25767	21
3.26133	21
3.26500	21
3.26867	21
3.27233	22
3.27600	22
3.27967	22
3.28333	22
3.28700	22
3.29067	22
3.29433	22
3.29800	22
3.30167	22
3.30533	22
3.30900	22
3.31267	22
3.31633	22
3.32000	22
3.32367	22
3.32733	22
3.33100	23
3.33467	23
3.33833	24
3.34200	24
3.34567	24
3.34933	25
3.35300	25
3.35667	25
3.36033	26
3.36400	26
3.36767	26
3.37133	26
3.37500	26
3.37867	26
3.38233	26
3.38600	26
3.38967	26
3.39333	26
3.39700	26
3.40067	26
3.40433	26
3.40800	26
3.41167	26
3.41533	26
3.41900	25
3.42267	25
3.42633	25
3.43000	25
3.43367	25
3.43733	25
3.44100	24
3.44467	24
3.44833	24
3.45200	24
3.45567	24
3.45933	24
3.46300	24
3.46667	24
3.47033	24
3.47400	24
3.47767	25
3.48133	25
3.48500	25
3.48867	25
3.49233	25
3.49600	25
3.49967	25
3.50333	25
3.50700	25
3.51067	25
3.51433	25
3.51800	25
3.52167	26
3.52533	26
3.52900	26
3.53267	27
3.53633	27
3.54000	27
3.54367	27
3.54733	26
3.55100	26
3.55467	26
3.55833	26
3.56200	26
3.56567	26
3.56933	26
3.57300	26
3.57667	26
3.58033	25
3.58400	25
3.58767	25
3.59133	25
3.59500	24
3.59867	24
3.60233	24
3.60600	24
3.60967	24
3.61333	24
3.61700	24
3.62067	24
3.62433	24
3.62800	24
3.63167	24
3.63533	24
3.63900	24
3.64267	24
3.64633	24
3.65000	24
3.65367	24
3.65733	24
3.66100	24
3.66467	24
3.66833	24
3.67200	24
3.67567	24
3.67933	24
3.68300	24
3.68667	24
3.69033	24
3.69400	24
3.69767	24
3.70133	24
3.70500	24
3.70867	24
3.71233	24
3.71600	24
3.71967	24
3.72333	24
3.72700	23
3.73067	23
3.73433	23
3.73800	23
3.74167	23
3.74533	23
3.74900	24
3.75267	24
3.75633	24
3.76000	24
3.76367	24
3.76733	24
3.77100	24
3.77467	25
3.77833	25
3.78200	25
3.78567	25
3.78933	25
3.79300	25
3.79667	25
3.80033	25
3.80400	25
3.80767	24
3.81133	24
3.81500	24
3.81867	23
3.82233	23
3.82600	23
3.82967	23
3.83333	23
3.83700	23
3.84067	23
3.84433	23
3.84800	23
3.85167	23
3.85533	23
3.85900	24
3.86267	24
3.86633	24
3.87000	24
3.87367	24
3.87733	25
3.88100	25
3.88467	25
3.88833	25
3.89200	25
3.89567	26
3.89933	26
3.90300	26
3.90667	26
3.91033	26
3.91400	26
3.91767	26
3.92133	27
3.92500	27
3.92867	27
3.93233	27
3.93600	27
3.93967	27
3.94333	27
3.94700	27
3.95067	27
3.95433	27
3.95800	27
3.96167	27
3.96533	27
3.96900	27
3.97267	27
3.97633	27
3.98000	26
3.98367	26
3.98733	26
3.99100	26
3.99467	25
3.99833	25

[Chromatogram (Ch3)]
Interval(msec)	220
# of Points	1091
Start Time(min)	0.002
End Time(min)	3.998
R.Time (min)	Intensity
0.00167	-1
0.00533	-4
0.00900	-5
0.01267	-8
0.01633	-9
0.02000	-9
0.02367	-8
0.02733	-8
0.03100	-6
0.03467	-3
0.03833	-2
0.04200	0
0.04567	-0
0.04933	-0
0.05300	-1
0.05667	-3
0.06033	-3
0.06400	-4
0.06767	-5
0.07133	-5
0.07500	-3
0.07867	-4
0.08233	-6
0.08600	-7
0.08967	-6
0.09333	-6
0.09700	-5
0.10067	-5
0.10433	-4
0.10800	-4
0.11167	-5
0.11533	-8
0.11900	-7
0.12267	-8
0.12633	-9
0.13000	-8
0.13367	-9
0.13733	-10
0.14100	-13
0.14467	-13
0.14833	-12
0.15200	-10
0.15567	-8
0.15933	-7
0.16300	-7
0.16667	-9
0.17033	-9
0.17400	-10
0.17767	-10
0.18133	-11
0.18500	-12
0.18867	-13
0.19233	-11
0.19600	-11
0.19967	-11
0.20333	-12
0.20700	-11
0.21067	-11
0.21433	-11
0.21800	-13
0.22167	-14
0.22533	-15
0.22900	-15
0.23267	-15
0.23633	-14
0.24000	-14
0.24367	-15
0.24733	-18
0.25100	-18
0.25467	-17
0.25833	-17
0.26200	-19
0.26567	-17
0.26933	-16
0.27300	-14
0.27667	-13
0.28033	-12
0.28400	-12
0.28767	-13
0.29133	-16
0.29500	-17
0.29867	-15
0.30233	-13
0.30600	-12
0.30967	-12
0.31333	-11
0.31700	-11
0.32067	-14
0.32433	-16
0.32800	-17
0.33167	-19
0.33533	-20
0.33900	-20
0.34267	-19
0.34633	-17
0.35000	-15
0.35367	-16
0.35733	-17
0.36100	-16
0.36467	-15
0.36833	-15
0.37200	-16
0.37567	-16
0.37933	-15
0.38300	-15
0.38667	-14
0.39033	-15
0.39400	-16
0.39767	-16
0.40133	-16
0.40500	-16
0.40867	-16
0.41233	-15
0.41600	-15
0.41967	-16
0.42333	-16
0.42700	-15
0.43067	-14
0.43433	-13
0.43800	-13
0.44167	-13
0.44533	-15
0.44900	-17
0.45267	-18
0.45633	-17
0.46000	-16
0.46367	-15
0.46733	-14
0.47100	-15
0.47467	-16
0.47833	-17
0.48200	-17
0.48567	-17
0.48933	-17
0.49300	-16
0.49667	-15
0.50033	-15
0.50400	-16
0.50767	-19
0.51133	-20
0.51500	-21
0.51867	-20
0.52233	-20
0.52600	-20
0.52967	-20
0.53333	-19
0.53700	-18
0.54067	-16
0.54433	-15
0.54800	-14
0.55167	-14
0.55533	-15
0.55900	-17
0.56267	-18
0.56633	-15
0.57000	-14
0.57367	-15
0.57733	-17
0.58100	-16
0.58467	-14
0.58833	-13
0.59200	-14
0.59567	-14
0.59933	-15
0.60300	-15
0.60667	-16
0.61033	-17
0.61400	-17
0.61767	-16
0.62133	-16
0.62500	-17
0.62867	-18
0.63233	-18
0.63600	-18
0.63967	-18
0.64333	-19
0.64700	-20
0.65067	-21
0.65433	-21
0.65800	-19
0.66167	-17
0.66533	-14
0.66900	-13
0.67267	-15
0.67633	-15
0.68000	-16
0.68367	-16
0.68733	-16
0.69100	-16
0.69467	-15
0.69833	-13
0.70200	-11
0.70567	-10
0.70933	-9
0.71300	-10
0.71667	-12
0.72033	-13
0.72400	-14
0.72767	-13
0.73133	-13
0.73500	-12
0.73867	-10
0.74233	-12
0.74600	-12
0.74967	-12
0.75333	-10
0.75700	-9
0.76067	-9
0.76433	-10
0.76800	-10
0.77167	-12
0.77533	-14
0.77900	-13
0.78267	-10
0.78633	-6
0.79000	-5
0.79367	-6
0.79733	-5
0.80100	-5
0.80467	-4
0.80833	-2
0.81200	-2
0.81567	-2
0.81933	-4
0.82300	-6
0.82667	-7
0.83033	-10
0.83400	-12
0.83767	-11
0.84133	-9
0.84500	-8
0.84867	-6
0.85233	-4
0.85600	-6
0.85967	-8
0.86333	-9
0.86700	-7
0.87067	-6
0.87433	-6
0.87800	-4
0.88167	-1
0.88533	0
0.88900	-1
0.89267	-2
0.89633	-1
0.90000	1
0.90367	3
0.90733	4
0.91100	2
0.91467	-1
0.91833	-2
0.92200	-3
0.92567	-3
0.92933	-3
0.93300	-1
0.93667	-1
0.94033	-3
0.94400	-5
0.94767	-7
0.95133	-8
0.95500	-7
0.95867	-7
0.96233	-6
0.96600	-5
0.96967	-4
0.97333	-2
0.97700	-2
0.98067	-3
0.98433	-5
0.98800	-5
0.99167	-4
0.99533	-1
0.99900	2
1.00267	2
1.00633	0
1.01000	-2
1.01367	-4
1.01733	-4
1.02100	-4
1.02467	-4
1.02833	-4
1.03200	-2
1.03567	1
1.03933	2
1.04300	0
1.04667	1
1.05033	4
1.05400	5
1.05767	5
1.06133	4
1.06500	2
1.06867	1
1.07233	1
1.07600	-0
1.07967	-0
1.08333	1
1.08700	3
1.09067	5
1.09433	4
1.09800	4
1.10167	4
1.10533	3
1.10900	6
1.11267	6
1.11633	6
1.12000	8
1.12367	7
1.12733	6
1.13100	3
1.13467	2
1.13833	1
1.14200	1
1.14567	1
1.14933	2
1.15300	1
1.15667	-0
1.16033	-2
1.16400	-2
1.16767	0
1.17133	2
1.17500	2
1.17867	4
1.18233	5
1.18600	5
1.18967	2
1.19333	2
1.19700	3
1.20067	5
1.20433	9
1.20800	12
1.21167	15
1.21533	14
1.21900	13
1.22267	13
1.22633	13
1.23000	10
1.23367	8
1.23733	9
1.24100	8
1.24467	7
1.24833	5
1.25200	4
1.25567	5
1.25933	6
1.26300	8
1.26667	9
1.27033	10
1.27400	11
1.27767	10
1.28133	9
1.28500	10
1.28867	12
1.29233	14
1.29600	14
1.29967	14
1.30333	16
1.30700	17
1.31067	18
1.31433	20
1.31800	24
1.32167	23
1.32533	21
1.32900	20
1.33267	19
1.33633	20
1.34000	22
1.34367	23
1.34733	24
1.35100	24
1.35467	25
1.35833	25
1.36200	26
1.36567	27
1.36933	26
1.37300	24
1.37667	23
1.38033	23
1.38400	23
1.38767	23
1.39133	26
1.39500	26
1.39867	26
1.40233	26
1.40600	27
1.40967	27
1.41333	27
1.41700	26
1.42067	24
1.42433	24
1.42800	26
1.43167	27
1.43533	25
1.43900	24
1.44267	24
1.44633	26
1.45000	26
1.45367	28
1.45733	30
1.46100	31
1.46467	32
1.46833	31
1.47200	30
1.47567	29
1.47933	28
1.48300	31
1.48667	31
1.49033	30
1.49400	29
1.49767	28
1.50133	28
1.50500	29
1.50867	30
1.51233	31
1.51600	32
1.51967	32
1.52333	33
1.52700	33
1.53067	32
1.53433	30
1.53800	31
1.54167	31
1.54533	31
1.54900	32
1.55267	32
1.55633	32
1.56000	33
1.56367	33
1.56733	35
1.57100	34
1.57467	34
1.57833	35
1.58200	38
1.58567	39
1.58933	39
1.59300	39
1.59667	37
1.60033	35
1.60400	35
1.60767	34
1.61133	33
1.61500	35
1.61867	37
1.62233	38
1.62600	36
1.62967	35
1.63333	38
1.63700	39
1.64067	40
1.64433	40
1.64800	38
1.65167	37
1.65533	36
1.65900	34
1.66267	34
1.66633	37
1.67000	38
1.67367	39
1.67733	40
1.68100	42
1.68467	43
1.68833	41
1.69200	38
1.69567	35
1.69933	35
1.70300	36
1.70667	37
1.71033	40
1.71400	43
1.71767	45
1.72133	45
1.72500	44
1.72867	43
1.73233	43
1.73600	44
1.73967	44
1.74333	44
1.74700	44
1.75067	45
1.75433	45
1.75800	46
1.76167	47
1.76533	49
1.76900	51
1.77267	51
1.77633	50
1.78000	50
1.78367	50
1.78733	51
1.79100	53
1.79467	54
1.79833	54
1.80200	54
1.80567	57
1.80933	60
1.81300	61
1.81667	63
1.82033	67
1.82400	68
1.82767	69
1.83133	68
1.83500	68
1.83867	67
1.84233	67
1.84600	65
1.84967	63
1.85333	62
1.85700	63
1.86067	66
1.86433	69
1.86800	70
1.87167	69
1.87533	69
1.87900	70
1.88267	71
1.88633	70
1.89000	70
1.89367	71
1.89733	71
1.90100	73
1.90467	72
1.90833	71
1.91200	73
1.91567	74
1.91933	77
1.92300	80
1.92667	80
1.93033	81
1.93400	82
1.93767	83
1.94133	84
1.94500	86
1.94867	88
1.95233	90
1.95600	91
1.95967	90
1.96333	91
1.96700	91
1.97067	94
1.97433	96
1.97800	97
1.98167	97
1.98533	97
1.98900	97
1.99267	97
1.99633	99
2.00000	101
2.00367	104
2.00733	108
2.01100	109
2.01467	113
2.01833	114
2.02200	113
2.02567	111
2.02933	112
2.03300	114
2.03667	116
2.04033	118
2.04400	120
2.04767	120
2.05133	119
2.05500	118
2.05867	117
2.06233	121
2.06600	124
2.06967	126
2.07333	128
2.07700	129
2.08067	129
2.08433	129
2.08800	130
2.09167	132
2.09533	134
2.09900	136
2.10267	138
2.10633	139
2.11000	139
2.11367	139
2.11733	141
2.12100	143
2.12467	148
2.12833	149
2.13200	150
2.13567	152
2.13933	156
2.14300	159
2.14667	159
2.15033	159
2.15400	159
2.15767	159
2.16133	162
2.16500	165
2.16867	167
2.17233	169
2.17600	170
2.17967	170
2.18333	171
2.18700	172
2.19067	173
2.19433	175
2.19800	178
2.20167	183
2.20533	185
2.20900	187
2.21267	188
2.21633	188
2.22000	189
2.22367	190
2.22733	192
2.23100	192
2.23467	194
2.23833	193
2.24200	193
2.24567	193
2.24933	194
2.25300	194
2.25667	193
2.26033	193
2.26400	194
2.26767	195
2.27133	197
2.27500	199
2.27867	200
2.28233	200
2.28600	201
2.28967	203
2.29333	203
2.29700	204
2.30067	207
2.30433	207
2.30800	207
2.31167	208
2.31533	211
2.31900	213
2.32267	211
2.32633	212
2.33000	213
2.33367	215
2.33733	215
2.34100	216
2.34467	216
2.34833	217
2.35200	218
2.35567	218
2.35933	217
2.36300	218
2.36667	220
2.37033	222
2.37400	222
2.37767	222
2.38133	223
2.38500	222
2.38867	221
2.39233	220
2.39600	219
2.39967	221
2.40333	224
2.40700	227
2.41067	229
2.41433	232
2.41800	235
2.42167	238
2.42533	239
2.42900	239
2.43267	238
2.43633	238
2.44000	242
2.44367	296
2.44733	443
2.45100	606
2.45467	746
2.45833	825
2.46200	830
2.46567	787
2.46933	729
2.47300	681
2.47667	651
2.48033	626
2.48400	589
2.48767	540
2.49133	487
2.49500	437
2.49867	395
2.50233	362
2.50600	342
2.50967	335
2.51333	340
2.51700	356
2.52067	379
2.52433	400
2.52800	409
2.53167	408
2.53533	396
2.53900	372
2.54267	340
2.54633	305
2.55000	274
2.55367	247
2.55733	224
2.56100	205
2.56467	191
2.56833	183
2.57200	178
2.57567	175
2.57933	173
2.58300	172
2.58667	171
2.59033	173
2.59400	175
2.59767	177
2.60133	177
2.60500	174
2.60867	167
2.61233	157
2.61600	145
2.61967	132
2.62333	121
2.62700	112
2.63067	103
2.63433	95
2.63800	88
2.64167	80
2.64533	72
2.64900	62
2.65267	52
2.65633	42
2.66000	30
2.66367	18
2.66733	9
2.67100	2
2.67467	-5
2.67833	-11
2.68200	-15
2.68567	-18
2.68933	-19
2.69300	-19
2.69667	-17
2.70033	-14
2.70400	-11
2.70767	-8
2.71133	-6
2.71500	-4
2.71867	0
2.72233	6
2.72600	10
2.72967	15
2.73333	21
2.73700	26
2.74067	29
2.74433	33
2.74800	36
2.75167	39
2.75533	42
2.75900	45
2.76267	48
2.76633	52
2.77000	57
2.77367	62
2.77733	65
2.78100	67
2.78467	71
2.78833	75
2.79200	80
2.79567	85
2.79933	89
2.80300	95
2.80667	102
2.81033	109
2.81400	116
2.81767	123
2.82133	131
2.82500	148
2.82867	185
2.83233	255
2.83600	375
2.83967	570
2.84333	857
2.84700	1247
2.85067	1731
2.85433	2285
2.85800	2875
2.86167	3456
2.86533	3979
2.86900	4404
2.87267	4698
2.87633	4850
2.88000	4861
2.88367	4750
2.88733	4541
2.89100	4265
2.89467	3947
2.89833	3606
2.90200	3262
2.90567	2926
2.90933	2610
2.91300	2317
2.91667	2050
2.92033	1810
2.92400	1595
2.92767	1407
2.93133	1240
2.93500	1093
2.93867	963
2.94233	848
2.94600	750
2.94967	663
2.95333	588
2.95700	520
2.96067	460
2.96433	411
2.96800	369
2.97167	332
2.97533	300
2.97900	270
2.98267	245
2.98633	225
2.99000	208
2.99367	192
2.99733	179
3.00100	167
3.00467	158
3.00833	148
3.01200	140
3.01567	133
3.01933	128
3.02300	123
3.02667	120
3.03033	114
3.03400	110
3.03767	108
3.04133	105
3.04500	102
3.04867	100
3.05233	98
3.05600	98
3.05967	99
3.06333	101
3.06700	100
3.07067	99
3.07433	95
3.07800	93
3.08167	93
3.08533	92
3.08900	92
3.09267	90
3.09633	91
3.10000	94
3.10367	96
3.10733	96
3.11100	96
3.11467	95
3.11833	93
3.12200	93
3.12567	94
3.12933	92
3.13300	92
3.13667	91
3.14033	91
3.14400	93
3.14767	94
3.15133	97
3.15500	99
3.15867	98
3.16233	98
3.16600	98
3.16967	100
3.17333	101
3.17700	103
3.18067	104
3.18433	107
3.18800	106
3.19167	106
3.19533	107
3.19900	110
3.20267	112
3.20633	114
3.21000	117
3.21367	119
3.21733	121
3.22100	122
3.22467	124
3.22833	126
3.23200	130
3.23567	133
3.23933	136
3.24300	137
3.24667	138
3.25033	141
3.25400	144
3.25767	143
3.26133	143
3.26500	146
3.26867	150
3.27233	152
3.27600	154
3.27967	156
3.28333	158
3.28700	159
3.29067	160
3.29433	161
3.29800	164
3.30167	165
3.30533	168
3.30900	171
3.31267	170
3.31633	170
3.32000	172
3.32367	173
3.32733	173
3.33100	174
3.33467	177
3.33833	179
3.34200	184
3.34567	187
3.34933	189
3.35300	189
3.35667	191
3.36033	191
3.36400	192
3.36767	195
3.37133	198
3.37500	201
3.37867	203
3.38233	204
3.38600	207
3.38967	210
3.39333	212
3.39700	213
3.40067	214
3.40433	216
3.40800	218
3.41167	218
3.41533	219
3.41900	218
3.42267	217
3.42633	218
3.43000	220
3.43367	222
3.43733	222
3.44100	221
3.44467	223
3.44833	225
3.45200	225
3.45567	224
3.45933	224
3.46300	225
3.46667	228
3.47033	229
3.47400	231
3.47767	231
3.48133	233
3.48500	233
3.48867	234
3.49233	234
3.49600	234
3.49967	233
3.50333	234
3.50700	234
3.51067	234
3.51433	234
3.51800	232
3.52167	232
3.52533	233
3.52900	233
3.53267	231
3.53633	229
3.54000	230
3.54367	231
3.54733	231
3.55100	231
3.55467	232
3.55833	232
3.56200	231
3.56567	230
3.56933	229
3.57300	230
3.57667	230
3.58033	230
3.58400	229
3.58767	231
3.59133	232
3.59500	232
3.59867	234
3.60233	233
3.60600	209
3.60967	182
3.61333	165
3.61700	155
3.62067	151
3.62433	151
3.62800	155
3.63167	163
3.63533	173
3.63900	186
3.64267	202
3.64633	217
3.65000	234
3.65367	252
3.65733	270
3.66100	287
3.66467	304
3.66833	322
3.67200	340
3.67567	358
3.67933	373
3.68300	388
3.68667	404
3.69033	418
3.69400	430
3.69767	441
3.70133	453
3.70500	464
3.70867	475
3.71233	483
3.71600	492
3.71967	498
3.72333	504
3.72700	508
3.73067	512
3.73433	515
3.73800	519
3.74167	522
3.74533	522
3.74900	523
3.75267	524
3.75633	526
3.76000	526
3.76367	527
3.76733	528
3.77100	530
3.77467	531
3.77833	532
3.78200	534
3.78567	537
3.78933	540
3.79300	542
3.79667	543
3.80033	543
3.80400	545
3.80767	548
3.81133	550
3.81500	550
3.81867	549
3.82233	548
3.82600	548
3.82967	547
3.83333	546
3.83700	548
3.84067	550
3.84433	550
3.84800	548
3.85167	547
3.85533	547
3.85900	548
3.86267	549
3.86633	548
3.87000	546
3.87367	545
3.87733	544
3.88100	541
3.88467	539
3.88833	537
3.89200	535
3.89567	533
3.89933	534
3.90300	535
3.90667	536
3.91033	537
3.91400	538
3.91767	541
3.92133	541
3.92500	538
3.92867	535
3.93233	532
3.93600	530
3.93967	531
3.94333	530
3.94700	528
3.95067	527
3.95433	527
3.95800	527
3.96167	527
3.96533	527
3.96900	527
3.97267	528
3.97633	526
3.98000	524
3.98367	524
3.98733	523
3.99100	520
3.99467	519
3.99833	516

[Status Trace (Column Oven Temperature)]
Interval(msec)	1000
# of Points	240
Start Time(min)	0.008
End Time(min)	3.991
Intensity Units	
Intensity Multiplier	1
R.Time (min)	Intensity
0.00763	35.07
0.02430	35.06
0.04097	35.06
0.05763	35.06
0.07430	35.07
0.09097	35.06
0.10763	35.05
0.12430	35.05
0.14097	35.05
0.15763	35.05
0.17430	35.06
0.19097	35.06
0.20763	35.06
0.22430	35.06
0.24097	35.06
0.25763	35.06
0.27430	35.06
0.29097	35.05
0.30763	35.04
0.32430	35.03
0.34097	35.02
0.35763	35.02
0.37430	35.01
0.39097	35.00
0.40763	35.00
0.42430	35.01
0.44097	35.01
0.45763	35.01
0.47430	35.01
0.49097	35.00
0.50763	35.00
0.52430	35.00
0.54097	35.01
0.55763	35.02
0.57430	35.02
0.59097	35.01
0.60763	35.00
0.62430	35.00
0.64097	34.99
0.65763	34.99
0.67430	34.98
0.69097	34.98
0.70763	34.98
0.72430	34.99
0.74097	35.00
0.75763	35.02
0.77430	35.02
0.79097	35.02
0.80763	35.02
0.82430	35.01
0.84097	35.01
0.85763	34.99
0.87430	34.98
0.89097	34.98
0.90763	34.99
0.92430	34.99
0.94097	34.99
0.95763	34.99
0.97430	35.00
0.99097	35.01
1.00763	35.01
1.02430	35.01
1.04097	35.01
1.05763	35.00
1.07430	34.99
1.09097	34.98
1.10763	34.99
1.12430	34.99
1.14097	35.00
1.15763	35.00
1.17430	35.00
1.19097	35.00
1.20763	34.99
1.22430	34.97
1.24097	34.97
1.25763	34.98
1.27430	34.98
1.29097	34.99
1.30763	35.00
1.32430	35.01
1.34097	35.00
1.35763	35.00
1.37430	35.00
1.39097	34.99
1.40763	34.99
1.42430	34.98
1.44097	34.97
1.45763	34.96
1.47430	34.97
1.49097	34.98
1.50763	34.97
1.52430	34.98
1.54097	34.98
1.55763	34.99
1.57430	34.99
1.59097	35.01
1.60763	35.07
1.62430	35.20
1.64097	35.39
1.65763	35.64
1.67430	35.97
1.69097	36.33
1.70763	36.67
1.72430	37.00
1.74097	37.35
1.75763	37.68
1.77430	37.98
1.79097	38.32
1.80763	38.65
1.82430	38.98
1.84097	39.32
1.85763	39.65
1.87430	39.99
1.89097	40.30
1.90763	40.64
1.92430	40.97
1.94097	41.31
1.95763	41.63
1.97430	41.95
1.99097	42.27
2.00763	42.60
2.02430	42.94
2.04097	43.27
2.05763	43.57
2.07430	43.90
2.09097	44.23
2.10763	44.56
2.12430	44.89
2.14097	45.22
2.15763	45.54
2.17430	45.86
2.19097	46.19
2.20763	46.53
2.22430	46.85
2.24097	47.17
2.25763	47.51
2.27430	47.82
2.29097	48.16
2.30763	48.47
2.32430	48.83
2.34097	49.15
2.35763	49.41
2.37430	49.62
2.39097	49.68
2.40763	49.66
2.42430	49.68
2.44097	49.69
2.45763	49.69
2.47430	49.72
2.49097	49.73
2.50763	49.73
2.52430	49.75
2.54097	49.78
2.55763	49.77
2.57430	49.80
2.59097	49.83
2.60763	49.83
2.62430	49.84
2.64097	49.85
2.65763	49.84
2.67430	49.83
2.69097	49.86
2.70763	49.86
2.72430	49.85
2.74097	49.85
2.75763	49.87
2.77430	49.88
2.79097	49.88
2.80763	49.87
2.82430	49.86
2.84097	49.86
2.85763	49.87
2.87430	49.88
2.89097	49.90
2.90763	49.91
2.92430	49.94
2.94097	49.95
2.95763	49.96
2.97430	49.96
2.99097	49.96
3.00763	49.96
3.02430	49.96
3.04097	49.97
3.05763	49.98
3.07430	49.98
3.09097	49.99
3.10763	50.01
3.12430	50.02
3.14097	50.03
3.15763	50.02
3.17430	50.05
3.19097	50.06
3.20763	50.07
3.22430	50.09
3.24097	50.10
3.25763	50.10
3.27430	50.10
3.29097	50.10
3.30763	50.11
3.32430	50.10
3.34097	50.09
3.35763	50.08
3.37430	50.07
3.39097	50.06
3.40763	50.06
3.42430	50.07
3.44097	50.07
3.45763	50.07
3.47430	50.07
3.49097	50.07
3.50763	50.07
3.52430	50.05
3.54097	50.04
3.55763	50.04
3.57430	50.05
3.59097	50.05
3.60763	50.06
3.62430	50.05
3.64097	50.06
3.65763	50.06
3.67430	50.06
3.69097	50.06
3.70763	50.07
3.72430	50.08
3.74097	50.08
3.75763	50.08
3.77430	50.08
3.79097	50.08
3.80763	50.09
3.82430	50.10
3.84097	50.10
3.85763	50.10
3.87430	50.09
3.89097	50.09
3.90763	50.08
3.92430	50.08
3.94097	50.06
3.95763	50.05
3.97430	50.04
3.99097	50.05

[Status Trace (Injection Unit Temperature)]
Interval(msec)	1000
# of Points	240
Start Time(min)	0.008
End Time(min)	3.991
Intensity Units	
Intensity Multiplier	1
R.Time (min)	Intensity
0.00763	99.97
0.02430	99.98
0.04097	99.97
0.05763	99.98
0.07430	99.98
0.09097	99.97
0.10763	99.98
0.12430	99.98
0.14097	99.98
0.15763	99.98
0.17430	99.98
0.19097	99.98
0.20763	99.98
0.22430	99.98
0.24097	99.98
0.25763	99.98
0.27430	99.98
0.29097	99.98
0.30763	99.98
0.32430	99.98
0.34097	99.99
0.35763	99.98
0.37430	99.98
0.39097	99.98
0.40763	99.99
0.42430	99.99
0.44097	99.98
0.45763	99.99
0.47430	99.99
0.49097	99.99
0.50763	99.99
0.52430	99.99
0.54097	99.99
0.55763	99.99
0.57430	99.98
0.59097	99.99
0.60763	99.99
0.62430	99.99
0.64097	99.98
0.65763	99.99
0.67430	99.99
0.69097	99.99
0.70763	99.98
0.72430	99.99
0.74097	99.98
0.75763	99.99
0.77430	99.99
0.79097	99.99
0.80763	99.99
0.82430	99.99
0.84097	99.99
0.85763	99.99
0.87430	99.98
0.89097	99.99
0.90763	99.99
0.92430	99.99
0.94097	99.98
0.95763	99.98
0.97430	99.98
0.99097	99.98
1.00763	99.98
1.02430	99.98
1.04097	99.98
1.05763	99.98
1.07430	99.98
1.09097	99.98
1.10763	99.98
1.12430	99.98
1.14097	99.98
1.15763	99.98
1.17430	99.98
1.19097	99.98
1.20763	99.98
1.22430	99.98
1.24097	99.98
1.25763	99.98
1.27430	99.99
1.29097	99.98
1.30763	99.99
1.32430	99.98
1.34097	99.98
1.35763	99.98
1.37430	99.98
1.39097	99.98
1.40763	99.98
1.42430	99.98
1.44097	99.98
1.45763	99.98
1.47430	99.98
1.49097	99.99
1.50763	99.98
1.52430	99.98
1.54097	99.98
1.55763	99.98
1.57430	99.98
1.59097	99.98
1.60763	99.98
1.62430	99.99
1.64097	99.98
1.65763	99.99
1.67430	99.99
1.69097	99.98
1.70763	99.99
1.72430	99.99
1.74097	99.99
1.75763	99.99
1.77430	99.98
1.79097	99.99
1.80763	99.99
1.82430	99.98
1.84097	99.98
1.85763	99.98
1.87430	99.98
1.89097	99.98
1.90763	99.98
1.92430	99.98
1.94097	99.98
1.95763	99.98
1.97430	99.98
1.99097	99.98
2.00763	99.98
2.02430	99.98
2.04097	99.98
2.05763	99.98
2.07430	99.98
2.09097	99.98
2.10763	99.98
2.12430	99.98
2.14097	99.97
2.15763	99.97
2.17430	99.97
2.19097	99.98
2.20763	99.97
2.22430	99.97
2.24097	99.97
2.25763	99.97
2.27430	99.97
2.29097	99.97
2.30763	99.97
2.32430	99.97
2.34097	99.97
2.35763	99.97
2.37430	99.97
2.39097	99.97
2.40763	99.97
2.42430	99.97
2.44097	99.97
2.45763	99.97
2.47430	99.97
2.49097	99.97
2.50763	99.97
2.52430	99.97
2.54097	99.97
2.55763	99.97
2.57430	99.98
2.59097	99.98
2.60763	99.98
2.62430	99.98
2.64097	99.98
2.65763	99.98
2.67430	99.98
2.69097	99.98
2.70763	99.98
2.72430	99.99
2.74097	99.98
2.75763	99.98
2.77430	99.99
2.79097	99.99
2.80763	99.99
2.82430	99.99
2.84097	100.00
2.85763	99.99
2.87430	100.00
2.89097	100.00
2.90763	100.00
2.92430	100.00
2.94097	100.00
2.95763	100.01
2.97430	100.01
2.99097	100.01
3.00763	100.01
3.02430	100.01
3.04097	100.01
3.05763	100.01
3.07430	100.01
3.09097	100.02
3.10763	100.02
3.12430	100.02
3.14097	100.02
3.15763	100.01
3.17430	100.01
3.19097	100.02
3.20763	100.02
3.22430	100.02
3.24097	100.02
3.25763	100.02
3.27430	100.02
3.29097	100.02
3.30763	100.02
3.32430	100.02
3.34097	100.02
3.35763	100.02
3.37430	100.02
3.39097	100.02
3.40763	100.02
3.42430	100.02
3.44097	100.03
3.45763	100.03
3.47430	100.03
3.49097	100.03
3.50763	100.02
3.52430	100.03
3.54097	100.03
3.55763	100.03
3.57430	100.03
3.59097	100.03
3.60763	100.03
3.62430	100.03
3.64097	100.03
3.65763	100.03
3.67430	100.04
3.69097	100.03
3.70763	100.03
3.72430	100.04
3.74097	100.04
3.75763	100.03
3.77430	100.04
3.79097	100.04
3.80763	100.04
3.82430	100.04
3.84097	100.04
3.85763	100.04
3.87430	100.04
3.89097	100.04
3.90763	100.03
3.92430	100.04
3.94097	100.04
3.95763	100.04
3.97430	100.04
3.99097	100.04

[Status Trace (Carrier Gas Pressure)]
Interval(msec)	1000
# of Points	240
Start Time(min)	0.008
End Time(min)	3.991
Intensity Units	
Intensity Multiplier	1
R.Time (min)	Intensity
0.00763	58.00
0.02430	55.42
0.04097	57.14
0.05763	59.20
0.07430	59.43
0.09097	58.06
0.10763	57.98
0.12430	58.01
0.14097	58.01
0.15763	58.01
0.17430	58.00
0.19097	58.00
0.20763	58.00
0.22430	58.00
0.24097	58.00
0.25763	58.00
0.27430	58.00
0.29097	58.00
0.30763	58.00
0.32430	58.00
0.34097	58.00
0.35763	58.00
0.37430	58.00
0.39097	58.00
0.40763	58.00
0.42430	58.00
0.44097	58.00
0.45763	58.00
0.47430	58.00
0.49097	58.00
0.50763	58.00
0.52430	58.00
0.54097	58.00
0.55763	58.00
0.57430	58.00
0.59097	58.00
0.60763	58.00
0.62430	58.00
0.64097	58.00
0.65763	58.00
0.67430	58.00
0.69097	58.00
0.70763	58.00
0.72430	58.00
0.74097	58.00
0.75763	58.00
0.77430	58.00
0.79097	58.00
0.80763	58.00
0.82430	58.00
0.84097	58.00
0.85763	58.00
0.87430	58.00
0.89097	58.00
0.90763	58.00
0.92430	58.00
0.94097	58.00
0.95763	58.00
0.97430	58.00
0.99097	58.00
1.00763	58.00
1.02430	58.00
1.04097	58.00
1.05763	58.00
1.07430	58.00
1.09097	58.00
1.10763	58.00
1.12430	58.00
1.14097	58.00
1.15763	58.00
1.17430	58.00
1.19097	58.00
1.20763	58.00
1.22430	58.00
1.24097	58.00
1.25763	58.00
1.27430	58.00
1.29097	58.00
1.30763	58.00
1.32430	58.00
1.34097	58.00
1.35763	58.00
1.37430	58.00
1.39097	58.00
1.40763	58.00
1.42430	58.00
1.44097	58.00
1.45763	58.00
1.47430	58.00
1.49097	58.00
1.50763	58.00
1.52430	58.00
1.54097	58.00
1.55763	58.00
1.57430	58.00
1.59097	58.00
1.60763	58.00
1.62430	58.00
1.64097	58.00
1.65763	58.00
1.67430	58.01
1.69097	58.00
1.70763	58.00
1.72430	58.00
1.74097	58.00
1.75763	58.00
1.77430	58.00
1.79097	58.00
1.80763	58.00
1.82430	58.00
1.84097	58.00
1.85763	58.00
1.87430	58.00
1.89097	58.00
1.90763	58.00
1.92430	58.00
1.94097	58.00
1.95763	58.00
1.97430	58.00
1.99097	58.00
2.00763	58.00
2.02430	58.00
2.04097	58.00
2.05763	58.00
2.07430	58.00
2.09097	58.00
2.10763	58.00
2.12430	58.00
2.14097	58.00
2.15763	58.00
2.17430	58.00
2.19097	58.00
2.20763	58.00
2.22430	58.00
2.24097	58.00
2.25763	58.00
2.27430	58.00
2.29097	58.00
2.30763	58.00
2.32430	58.00
2.34097	58.00
2.35763	58.00
2.37430	58.00
2.39097	57.99
2.40763	57.99
2.42430	58.00
2.44097	58.00
2.45763	58.00
2.47430	58.00
2.49097	58.00
2.50763	58.00
2.52430	57.98
2.54097	58.00
2.55763	58.00
2.57430	58.00
2.59097	58.00
2.60763	58.00
2.62430	58.00
2.64097	58.00
2.65763	58.00
2.67430	58.00
2.69097	58.00
2.70763	58.00
2.72430	58.00
2.74097	58.00
2.75763	58.00
2.77430	58.00
2.79097	58.00
2.80763	58.00
2.82430	58.00
2.84097	58.00
2.85763	58.00
2.87430	58.00
2.89097	58.00
2.90763	58.00
2.92430	58.00
2.94097	58.00
2.95763	58.00
2.97430	58.00
2.99097	58.00
3.00763	58.00
3.02430	58.00
3.04097	58.00
3.05763	58.00
3.07430	58.00
3.09097	58.00
3.10763	58.00
3.12430	58.00
3.14097	58.00
3.15763	58.00
3.17430	58.00
3.19097	58.00
3.20763	58.00
3.22430	58.00
3.24097	58.00
3.25763	58.00
3.27430	58.00
3.29097	58.00
3.30763	58.00
3.32430	58.00
3.34097	58.00
3.35763	58.00
3.37430	58.00
3.39097	58.00
3.40763	58.00
3.42430	58.00
3.44097	58.00
3.45763	58.00
3.47430	58.00
3.49097	58.00
3.50763	58.00
3.52430	58.00
3.54097	58.00
3.55763	58.00
3.57430	58.00
3.59097	58.00
3.60763	58.00
3.62430	58.00
3.64097	58.00
3.65763	58.00
3.67430	58.00
3.69097	58.00
3.70763	58.00
3.72430	58.00
3.74097	58.00
3.75763	58.00
3.77430	58.00
3.79097	58.00
3.80763	58.00
3.82430	58.00
3.84097	58.00
3.85763	58.00
3.87430	58.00
3.89097	58.00
3.90763	58.00
3.92430	58.00
3.94097	58.00
3.95763	58.00
3.97430	58.00
3.99097	58.00

[Status Trace (Carrier Gas Flow)]
Interval(msec)	1000
# of Points	240
Start Time(min)	0.008
End Time(min)	3.991
Intensity Units	
Intensity Multiplier	1
R.Time (min)	Intensity
0.00763	34.52
0.02430	34.53
0.04097	34.55
0.05763	34.55
0.07430	34.50
0.09097	34.51
0.10763	34.52
0.12430	34.51
0.14097	34.51
0.15763	34.51
0.17430	34.52
0.19097	34.52
0.20763	34.51
0.22430	34.52
0.24097	34.51
0.25763	34.52
0.27430	34.52
0.29097	34.52
0.30763	34.52
0.32430	34.53
0.34097	34.52
0.35763	34.52
0.37430	34.51
0.39097	34.52
0.40763	34.52
0.42430	34.52
0.44097	34.52
0.45763	34.52
0.47430	34.52
0.49097	34.52
0.50763	34.52
0.52430	34.52
0.54097	34.52
0.55763	34.51
0.57430	34.52
0.59097	34.52
0.60763	34.52
0.62430	34.52
0.64097	34.52
0.65763	34.52
0.67430	34.52
0.69097	34.52
0.70763	34.52
0.72430	34.52
0.74097	34.52
0.75763	34.52
0.77430	34.52
0.79097	34.52
0.80763	34.51
0.82430	34.52
0.84097	34.52
0.85763	34.52
0.87430	34.52
0.89097	34.52
0.90763	34.52
0.92430	34.52
0.94097	34.52
0.95763	34.52
0.97430	34.52
0.99097	34.52
1.00763	34.52
1.02430	34.51
1.04097	34.52
1.05763	34.52
1.07430	34.52
1.09097	34.52
1.10763	34.52
1.12430	34.52
1.14097	34.52
1.15763	34.52
1.17430	34.52
1.19097	34.52
1.20763	34.51
1.22430	34.52
1.24097	34.52
1.25763	34.52
1.27430	34.52
1.29097	34.52
1.30763	34.52
1.32430	34.52
1.34097	34.51
1.35763	34.52
1.37430	34.51
1.39097	34.52
1.40763	34.52
1.42430	34.52
1.44097	34.51
1.45763	34.53
1.47430	34.52
1.49097	34.52
1.50763	34.52
1.52430	34.52
1.54097	34.52
1.55763	34.52
1.57430	34.52
1.59097	34.52
1.60763	34.52
1.62430	34.52
1.64097	34.52
1.65763	34.52
1.67430	34.52
1.69097	34.52
1.70763	34.52
1.72430	34.51
1.74097	34.51
1.75763	34.52
1.77430	34.52
1.79097	34.52
1.80763	34.52
1.82430	34.51
1.84097	34.52
1.85763	34.52
1.87430	34.52
1.89097	34.52
1.90763	34.52
1.92430	34.52
1.94097	34.52
1.95763	34.52
1.97430	34.52
1.99097	34.52
2.00763	34.52
2.02430	34.52
2.04097	34.52
2.05763	34.52
2.07430	34.51
2.09097	34.52
2.10763	34.51
2.12430	34.52
2.14097	34.52
2.15763	34.52
2.17430	34.52
2.19097	34.51
2.20763	34.52
2.22430	34.52
2.24097	34.52
2.25763	34.52
2.27430	34.51
2.29097	34.52
2.30763	34.52
2.32430	34.52
2.34097	34.52
2.35763	34.52
2.37430	34.52
2.39097	34.52
2.40763	34.52
2.42430	34.52
2.44097	34.52
2.45763	34.52
2.47430	34.52
2.49097	34.52
2.50763	34.34
2.52430	34.52
2.54097	34.51
2.55763	34.52
2.57430	34.51
2.59097	34.52
2.60763	34.52
2.62430	34.52
2.64097	34.52
2.65763	34.52
2.67430	34.52
2.69097	34.52
2.70763	34.52
2.72430	34.52
2.74097	34.52
2.75763	34.52
2.77430	34.52
2.79097	34.52
2.80763	34.52
2.82430	34.52
2.84097	34.51
2.85763	34.52
2.87430	34.52
2.89097	34.52
2.90763	34.52
2.92430	34.51
2.94097	34.52
2.95763	34.52
2.97430	34.52
2.99097	34.52
3.00763	34.53
3.02430	34.52
3.04097	34.52
3.05763	34.52
3.07430	34.53
3.09097	34.52
3.10763	34.52
3.12430	34.52
3.14097	34.51
3.15763	34.52
3.17430	34.52
3.19097	34.52
3.20763	34.52
3.22430	34.52
3.24097	34.52
3.25763	34.52
3.27430	34.52
3.29097	34.52
3.30763	34.51
3.32430	34.52
3.34097	34.52
3.35763	34.52
3.37430	34.52
3.39097	34.52
3.40763	34.52
3.42430	34.52
3.44097	34.51
3.45763	34.52
3.47430	34.52
3.49097	34.52
3.50763	34.52
3.52430	34.52
3.54097	34.52
3.55763	34.51
3.57430	34.52
3.59097	34.52
3.60763	34.52
3.62430	34.52
3.64097	34.52
3.65763	34.52
3.67430	34.52
3.69097	34.52
3.70763	34.52
3.72430	34.52
3.74097	34.52
3.75763	34.51
3.77430	34.52
3.79097	34.52
3.80763	34.52
3.82430	34.52
3.84097	34.52
3.85763	34.52
3.87430	34.52
3.89097	34.52
3.90763	34.51
3.92430	34.52
3.94097	34.52
3.95763	34.52
3.97430	34.52
3.99097	34.52

[Status Trace (Column Flow)]
Interval(msec)	1000
# of Points	240
Start Time(min)	0.008
End Time(min)	3.991
Intensity Units	
Intensity Multiplier	1
R.Time (min)	Intensity
0.00763	5.54
0.02430	5.24
0.04097	5.44
0.05763	5.68
0.07430	5.70
0.09097	5.54
0.10763	5.53
0.12430	5.54
0.14097	5.54
0.15763	5.54
0.17430	5.54
0.19097	5.54
0.20763	5.54
0.22430	5.54
0.24097	5.54
0.25763	5.54
0.27430	5.54
0.29097	5.54
0.30763	5.54
0.32430	5.54
0.34097	5.54
0.35763	5.54
0.37430	5.54
0.39097	5.54
0.40763	5.54
0.42430	5.54
0.44097	5.54
0.45763	5.54
0.47430	5.54
0.49097	5.54
0.50763	5.54
0.52430	5.54
0.54097	5.54
0.55763	5.54
0.57430	5.54
0.59097	5.54
0.60763	5.54
0.62430	5.54
0.64097	5.54
0.65763	5.54
0.67430	5.54
0.69097	5.54
0.70763	5.54
0.72430	5.54
0.74097	5.54
0.75763	5.54
0.77430	5.54
0.79097	5.54
0.80763	5.54
0.82430	5.54
0.84097	5.54
0.85763	5.54
0.87430	5.54
0.89097	5.54
0.90763	5.54
0.92430	5.54
0.94097	5.54
0.95763	5.54
0.97430	5.54
0.99097	5.54
1.00763	5.54
1.02430	5.54
1.04097	5.54
1.05763	5.54
1.07430	5.54
1.09097	5.54
1.10763	5.54
1.12430	5.54
1.14097	5.54
1.15763	5.54
1.17430	5.54
1.19097	5.54
1.20763	5.54
1.22430	5.54
1.24097	5.54
1.25763	5.54
1.27430	5.54
1.29097	5.54
1.30763	5.54
1.32430	5.54
1.34097	5.54
1.35763	5.54
1.37430	5.54
1.39097	5.54
1.40763	5.54
1.42430	5.54
1.44097	5.54
1.45763	5.54
1.47430	5.54
1.49097	5.54
1.50763	5.54
1.52430	5.54
1.54097	5.54
1.55763	5.54
1.57430	5.54
1.59097	5.54
1.60763	5.54
1.62430	5.53
1.64097	5.53
1.65763	5.52
1.67430	5.51
1.69097	5.50
1.70763	5.49
1.72430	5.47
1.74097	5.46
1.75763	5.45
1.77430	5.44
1.79097	5.43
1.80763	5.42
1.82430	5.41
1.84097	5.40
1.85763	5.39
1.87430	5.38
1.89097	5.37
1.90763	5.36
1.92430	5.35
1.94097	5.34
1.95763	5.33
1.97430	5.32
1.99097	5.31
2.00763	5.31
2.02430	5.30
2.04097	5.29
2.05763	5.28
2.07430	5.27
2.09097	5.26
2.10763	5.25
2.12430	5.24
2.14097	5.23
2.15763	5.22
2.17430	5.21
2.19097	5.20
2.20763	5.19
2.22430	5.18
2.24097	5.17
2.25763	5.16
2.27430	5.15
2.29097	5.14
2.30763	5.14
2.32430	5.13
2.34097	5.12
2.35763	5.11
2.37430	5.10
2.39097	5.10
2.40763	5.10
2.42430	5.10
2.44097	5.10
2.45763	5.10
2.47430	5.10
2.49097	5.10
2.50763	5.10
2.52430	5.10
2.54097	5.10
2.55763	5.10
2.57430	5.10
2.59097	5.10
2.60763	5.10
2.62430	5.10
2.64097	5.10
2.65763	5.10
2.67430	5.10
2.69097	5.10
2.70763	5.10
2.72430	5.10
2.74097	5.10
2.75763	5.10
2.77430	5.10
2.79097	5.10
2.80763	5.10
2.82430	5.10
2.84097	5.10
2.85763	5.10
2.87430	5.10
2.89097	5.10
2.90763	5.10
2.92430	5.10
2.94097	5.09
2.95763	5.09
2.97430	5.09
2.99097	5.09
3.00763	5.09
3.02430	5.09
3.04097	5.09
3.05763	5.09
3.07430	5.09
3.09097	5.09
3.10763	5.09
3.12430	5.09
3.14097	5.09
3.15763	5.09
3.17430	5.09
3.19097	5.09
3.20763	5.09
3.22430	5.09
3.24097	5.09
3.25763	5.09
3.27430	5.09
3.29097	5.09
3.30763	5.09
3.32430	5.09
3.34097	5.09
3.35763	5.09
3.37430	5.09
3.39097	5.09
3.40763	5.09
3.42430	5.09
3.44097	5.09
3.45763	5.09
3.47430	5.09
3.49097	5.09
3.50763	5.09
3.52430	5.09
3.54097	5.09
3.55763	5.09
3.57430	5.09
3.59097	5.09
3.60763	5.09
3.62430	5.09
3.64097	5.09
3.65763	5.09
3.67430	5.09
3.69097	5.09
3.70763	5.09
3.72430	5.09
3.74097	5.09
3.75763	5.09
3.77430	5.09
3.79097	5.09
3.80763	5.09
3.82430	5.09
3.84097	5.09
3.85763	5.09
3.87430	5.09
3.89097	5.09
3.90763	5.09
3.92430	5.09
3.94097	5.09
3.95763	5.09
3.97430	5.09
3.99097	5.09

[Status Trace (Linear Velocity)]
Interval(msec)	1000
# of Points	240
Start Time(min)	0.008
End Time(min)	3.991
Intensity Units	
Intensity Multiplier	1
R.Time (min)	Intensity
0.00763	39.01
0.02430	37.32
0.04097	38.45
0.05763	39.80
0.07430	39.95
0.09097	39.05
0.10763	39.00
0.12430	39.02
0.14097	39.02
0.15763	39.02
0.17430	39.02
0.19097	39.02
0.20763	39.02
0.22430	39.02
0.24097	39.02
0.25763	39.02
0.27430	39.02
0.29097	39.02
0.30763	39.02
0.32430	39.02
0.34097	39.02
0.35763	39.02
0.37430	39.02
0.39097	39.02
0.40763	39.02
0.42430	39.02
0.44097	39.02
0.45763	39.02
0.47430	39.02
0.49097	39.02
0.50763	39.02
0.52430	39.02
0.54097	39.02
0.55763	39.02
0.57430	39.02
0.59097	39.02
0.60763	39.02
0.62430	39.02
0.64097	39.02
0.65763	39.02
0.67430	39.02
0.69097	39.02
0.70763	39.02
0.72430	39.02
0.74097	39.02
0.75763	39.02
0.77430	39.02
0.79097	39.02
0.80763	39.02
0.82430	39.02
0.84097	39.02
0.85763	39.02
0.87430	39.02
0.89097	39.02
0.90763	39.02
0.92430	39.02
0.94097	39.02
0.95763	39.02
0.97430	39.02
0.99097	39.02
1.00763	39.02
1.02430	39.02
1.04097	39.02
1.05763	39.02
1.07430	39.02
1.09097	39.02
1.10763	39.02
1.12430	39.02
1.14097	39.02
1.15763	39.02
1.17430	39.02
1.19097	39.02
1.20763	39.02
1.22430	39.02
1.24097	39.02
1.25763	39.02
1.27430	39.02
1.29097	39.02
1.30763	39.02
1.32430	39.02
1.34097	39.02
1.35763	39.02
1.37430	39.02
1.39097	39.02
1.40763	39.02
1.42430	39.02
1.44097	39.02
1.45763	39.02
1.47430	39.02
1.49097	39.02
1.50763	39.02
1.52430	39.02
1.54097	39.02
1.55763	39.02
1.57430	39.02
1.59097	39.02
1.60763	39.02
1.62430	39.00
1.64097	38.99
1.65763	38.96
1.67430	38.93
1.69097	38.90
1.70763	38.86
1.72430	38.83
1.74097	38.80
1.75763	38.76
1.77430	38.73
1.79097	38.70
1.80763	38.67
1.82430	38.64
1.84097	38.61
1.85763	38.58
1.87430	38.55
1.89097	38.52
1.90763	38.49
1.92430	38.45
1.94097	38.42
1.95763	38.39
1.97430	38.36
1.99097	38.33
2.00763	38.30
2.02430	38.27
2.04097	38.24
2.05763	38.21
2.07430	38.19
2.09097	38.15
2.10763	38.12
2.12430	38.09
2.14097	38.06
2.15763	38.03
2.17430	38.01
2.19097	37.98
2.20763	37.95
2.22430	37.92
2.24097	37.89
2.25763	37.86
2.27430	37.83
2.29097	37.80
2.30763	37.77
2.32430	37.74
2.34097	37.71
2.35763	37.69
2.37430	37.67
2.39097	37.66
2.40763	37.66
2.42430	37.66
2.44097	37.66
2.45763	37.66
2.47430	37.66
2.49097	37.66
2.50763	37.66
2.52430	37.65
2.54097	37.66
2.55763	37.66
2.57430	37.65
2.59097	37.65
2.60763	37.65
2.62430	37.65
2.64097	37.65
2.65763	37.65
2.67430	37.65
2.69097	37.65
2.70763	37.65
2.72430	37.65
2.74097	37.65
2.75763	37.65
2.77430	37.65
2.79097	37.65
2.80763	37.65
2.82430	37.65
2.84097	37.65
2.85763	37.65
2.87430	37.65
2.89097	37.65
2.90763	37.64
2.92430	37.64
2.94097	37.64
2.95763	37.64
2.97430	37.64
2.99097	37.64
3.00763	37.64
3.02430	37.64
3.04097	37.64
3.05763	37.64
3.07430	37.64
3.09097	37.64
3.10763	37.64
3.12430	37.63
3.14097	37.63
3.15763	37.63
3.17430	37.63
3.19097	37.63
3.20763	37.63
3.22430	37.63
3.24097	37.63
3.25763	37.63
3.27430	37.63
3.29097	37.63
3.30763	37.63
3.32430	37.63
3.34097	37.63
3.35763	37.63
3.37430	37.63
3.39097	37.63
3.40763	37.63
3.42430	37.63
3.44097	37.63
3.45763	37.63
3.47430	37.63
3.49097	37.63
3.50763	37.63
3.52430	37.63
3.54097	37.63
3.55763	37.63
3.57430	37.63
3.59097	37.63
3.60763	37.63
3.62430	37.63
3.64097	37.63
3.65763	37.63
3.67430	37.63
3.69097	37.63
3.70763	37.63
3.72430	37.63
3.74097	37.63
3.75763	37.63
3.77430	37.63
3.79097	37.63
3.80763	37.63
3.82430	37.63
3.84097	37.63
3.85763	37.63
3.87430	37.63
3.89097	37.63
3.90763	37.63
3.92430	37.63
3.94097	37.63
3.95763	37.63
3.97430	37.63
3.99097	37.63

