[Header]
Application Name	LabSolutions
Version	5.110
Data File Name	C:\Users\User\Desktop\GC Analyses\Jack\Nachusa Grasslands Sampling\T3 Timepoint July 12th\T3_07122022_090.gcd
Output Date	3/14/2023
Output Time	3:43:36 PM

[File Information]
Type	Data File
Generated	3/14/2023 12:34:48 AM
Generated by	System Administrator
Modified	3/14/2023 12:41:34 AM
Modified by	System Administrator

[Sample Information]
Operator Name	System Administrator
Acquired	3/14/2023 12:37:34 AM
Sample Type	0:Unknown
Level	0
Sample Name	090
Sample ID	090
ISTD Amount1	1
ISTD Amount2	1
ISTD Amount3	1
ISTD Amount4	1
ISTD Amount5	1
ISTD Amount6	1
ISTD Amount7	1
ISTD Amount8	1
ISTD Amount9	1
ISTD Amount10	1
ISTD Amount11	1
ISTD Amount12	1
ISTD Amount13	1
ISTD Amount14	1
ISTD Amount15	1
ISTD Amount16	1
ISTD Amount17	1
ISTD Amount18	1
ISTD Amount19	1
ISTD Amount20	1
ISTD Amount21	1
ISTD Amount22	1
ISTD Amount23	1
ISTD Amount24	1
ISTD Amount25	1
ISTD Amount26	1
ISTD Amount27	1
ISTD Amount28	1
ISTD Amount29	1
ISTD Amount30	1
ISTD Amount31	1
ISTD Amount32	1
Sample Amount	1
Dilution Factor	1
Vial#	89
Injection Volume	1
Injection Count	1
Bar Code	

[Original Files]
Data File	C:\Users\User\Desktop\GC Analyses\Jack\Nachusa Grasslands Sampling\T3 Timepoint July 12th\T3_07122022_090.gcd
Method File	C:\LabSolutions\Data\GHG_4min_2022\ghg3_togas_w_acet_4 min_new_int.gcm
Batch File	C:\LabSolutions\Data\AutoSamplerTesting\T3_07122022.gcb
Report Format File	c:\LabSolutions\System\DEFAULT.lsr

[File Description]


[Configuration]
Instrument Name	C0B7VH3-Instrument1
Instrument #	1
Line #	1
# of Detectors	3
Detector ID	DET#1	DET#2	DET#3
Detector Name	FID	PTCD	ECD
# of Channels	1	1	1

[Peak Table(Ch1)]
# of Peaks	3
Peak#	R.Time	I.Time	F.Time	Area	Height	A/H	Conc.	Mark	ID#	Name	k'	Plate #	Plate Ht.	Tailing	Resolution	Sep.Factor	Area Ratio	Height Ratio	Conc. %	Norm Conc.
1	1.476	1.439	1.534	29751	14740	2.018	210.043	   	1	CO	0.000	9711	15.447	1.271	0.000	0.000	0	0	21.925	21.925
2	1.571	1.538	1.615	3692	1945	1.898	71.384	   	2	CH4	0.065	12147	12.349	1.082	1.631	0.000	0	0	7.451	7.451
3	1.996	1.952	2.422	2695849	1291652	2.087	676.585	   	3	CO2	0.353	17460	8.591	1.344	7.243	5.462	0	0	70.624	70.624

[Peak Table(Ch2)]
# of Peaks	0

[Peak Table(Ch3)]
# of Peaks	6
Peak#	R.Time	I.Time	F.Time	Area	Height	A/H	Conc.	Mark	ID#	Name	k'	Plate #	Plate Ht.	Tailing	Resolution	Sep.Factor	Area Ratio	Height Ratio	Conc. %	Norm Conc.
1	0.874	0.775	1.153	186	14	13.096	0.000	   			0.000	324	462.981	1.962	0.000	0.000	0	0	0.000	0.000
2	2.462	2.279	2.510	2543	722	3.522	0.000	   			1.816	10542	14.229	0.000	10.941	0.000	0	0	0.000	0.000
3	2.532	2.510	2.587	1061	349	3.042	0.000	 V 			1.896	6901	21.735	0.000	0.640	1.044	0	0	0.000	0.000
4	2.605	2.587	2.682	505	141	3.589	0.000	 V 			1.979	1883	79.642	0.000	0.405	1.044	0	0	0.000	0.000
5	2.880	2.799	3.063	17857	4749	3.760	0.456	   	1	N2O	2.294	13351	11.235	1.524	1.619	1.159	0	0	100.000	100.000
6	3.514	3.188	3.635	1798	102	17.641	0.000	   			3.019	1333	112.553	0.696	2.617	1.316	0	0	0.000	0.000

[Compound Results(Ch1)]
# of IDs	6
ID#	Name	R.Time	Area	Height	Conc.	Curve	3rd	2nd	1st	Constant	Area Ratio	Height Ratio	Conc. %	Norm Conc.
1	CO	1.476	29751	14740	210.043	Linear	0.000000e+00	0.000000e+00	1.416423e+002	0.000000e+00	0	0	21.925	21.925
2	CH4	1.571	3692	1945	71.384	Linear	0.000000e+00	0.000000e+00	5.171738e+001	0.000000e+00	0	0	7.451	7.451
3	CO2	1.996	2695849	1291652	676.585	Linear	0.000000e+00	0.000000e+00	3.984494e+003	0.000000e+00	0	0	70.624	70.624
4	Ethylene	0.000	0	0	0.000	Linear	0.000000e+00	0.000000e+00	0.000000e+00	0.000000e+00	0	0	0.000	0.000
5	Acetylene	0.000	0	0	0.000	Linear	0.000000e+00	0.000000e+00	0.000000e+00	0.000000e+00	0	0	0.000	0.000
6	Ethane	0.000	0	0	0.000	Linear	0.000000e+00	0.000000e+00	0.000000e+00	0.000000e+00	0	0	0.000	0.000

[Compound Results(Ch2)]
# of IDs	5
ID#	Name	R.Time	Area	Height	Conc.	Curve	3rd	2nd	1st	Constant	Area Ratio	Height Ratio	Conc. %	Norm Conc.
1	Hydrogen	0.000	0	0	0.000	Linear	0.000000e+00	0.000000e+00	0.000000e+00	0.000000e+00	0	0	0.000	0.000
2	Oxygen	0.000	0	0	0.000	Linear	0.000000e+00	0.000000e+00	0.000000e+00	0.000000e+00	0	0	0.000	0.000
3	Nitrogen	0.000	0	0	0.000	Linear	0.000000e+00	0.000000e+00	0.000000e+00	0.000000e+00	0	0	0.000	0.000
4	Methane	0.000	0	0	0.000	Linear	0.000000e+00	0.000000e+00	0.000000e+00	0.000000e+00	0	0	0.000	0.000
5	Carbon Monoxide	0.000	0	0	0.000	Linear	0.000000e+00	0.000000e+00	0.000000e+00	0.000000e+00	0	0	0.000	0.000

[Compound Results(Ch3)]
# of IDs	2
ID#	Name	R.Time	Area	Height	Conc.	Curve	3rd	2nd	1st	Constant	Area Ratio	Height Ratio	Conc. %	Norm Conc.
1	N2O	2.880	17857	4749	0.456	Linear	0.000000e+00	0.000000e+00	3.915173e+004	0.000000e+00	0	0	100.000	100.000
2	SF6	0.000	0	0	0.000	Linear	0.000000e+00	0.000000e+00	0.000000e+00	0.000000e+00	0	0	0.000	0.000

[Group Results(Ch1)]
# of Groups	0

[Group Results(Ch2)]
# of Groups	0

[Group Results(Ch3)]
# of Groups	0

[Chromatogram (Ch1)]
Interval(msec)	220
# of Points	1091
Start Time(min)	0.002
End Time(min)	3.998
R.Time (min)	Intensity
0.00167	5
0.00533	4
0.00900	8
0.01267	10
0.01633	10
0.02000	9
0.02367	9
0.02733	12
0.03100	16
0.03467	21
0.03833	25
0.04200	28
0.04567	26
0.04933	22
0.05300	19
0.05667	18
0.06033	15
0.06400	12
0.06767	10
0.07133	8
0.07500	8
0.07867	12
0.08233	18
0.08600	22
0.08967	23
0.09333	24
0.09700	20
0.10067	13
0.10433	6
0.10800	5
0.11167	11
0.11533	21
0.11900	27
0.12267	28
0.12633	27
0.13000	26
0.13367	25
0.13733	27
0.14100	26
0.14467	27
0.14833	30
0.15200	34
0.15567	38
0.15933	36
0.16300	32
0.16667	29
0.17033	30
0.17400	31
0.17767	34
0.18133	38
0.18500	41
0.18867	39
0.19233	30
0.19600	17
0.19967	8
0.20333	7
0.20700	17
0.21067	33
0.21433	45
0.21800	49
0.22167	49
0.22533	48
0.22900	48
0.23267	46
0.23633	43
0.24000	39
0.24367	38
0.24733	38
0.25100	37
0.25467	34
0.25833	29
0.26200	22
0.26567	18
0.26933	19
0.27300	24
0.27667	28
0.28033	32
0.28400	35
0.28767	37
0.29133	35
0.29500	27
0.29867	19
0.30233	15
0.30600	17
0.30967	23
0.31333	28
0.31700	32
0.32067	43
0.32433	57
0.32800	64
0.33167	56
0.33533	43
0.33900	34
0.34267	26
0.34633	21
0.35000	21
0.35367	27
0.35733	30
0.36100	32
0.36467	37
0.36833	42
0.37200	39
0.37567	28
0.37933	18
0.38300	16
0.38667	21
0.39033	35
0.39400	50
0.39767	60
0.40133	68
0.40500	71
0.40867	67
0.41233	59
0.41600	51
0.41967	47
0.42333	49
0.42700	57
0.43067	65
0.43433	63
0.43800	55
0.44167	50
0.44533	47
0.44900	48
0.45267	53
0.45633	56
0.46000	56
0.46367	55
0.46733	54
0.47100	51
0.47467	48
0.47833	44
0.48200	40
0.48567	40
0.48933	43
0.49300	49
0.49667	56
0.50033	59
0.50400	58
0.50767	53
0.51133	50
0.51500	47
0.51867	47
0.52233	48
0.52600	51
0.52967	53
0.53333	50
0.53700	51
0.54067	53
0.54433	52
0.54800	50
0.55167	50
0.55533	54
0.55900	60
0.56267	63
0.56633	62
0.57000	55
0.57367	48
0.57733	44
0.58100	43
0.58467	45
0.58833	48
0.59200	52
0.59567	57
0.59933	61
0.60300	60
0.60667	53
0.61033	47
0.61400	43
0.61767	40
0.62133	37
0.62500	39
0.62867	48
0.63233	57
0.63600	58
0.63967	49
0.64333	36
0.64700	28
0.65067	29
0.65433	37
0.65800	42
0.66167	43
0.66533	42
0.66900	42
0.67267	44
0.67633	45
0.68000	46
0.68367	48
0.68733	52
0.69100	57
0.69467	63
0.69833	68
0.70200	67
0.70567	67
0.70933	67
0.71300	65
0.71667	60
0.72033	55
0.72400	51
0.72767	47
0.73133	45
0.73500	43
0.73867	39
0.74233	36
0.74600	32
0.74967	28
0.75333	28
0.75700	33
0.76067	41
0.76433	53
0.76800	66
0.77167	72
0.77533	73
0.77900	74
0.78267	76
0.78633	75
0.79000	69
0.79367	61
0.79733	56
0.80100	52
0.80467	51
0.80833	53
0.81200	55
0.81567	58
0.81933	62
0.82300	63
0.82667	61
0.83033	65
0.83400	69
0.83767	74
0.84133	77
0.84500	78
0.84867	77
0.85233	79
0.85600	83
0.85967	92
0.86333	98
0.86700	101
0.87067	101
0.87433	98
0.87800	93
0.88167	96
0.88533	100
0.88900	98
0.89267	95
0.89633	88
0.90000	82
0.90367	81
0.90733	81
0.91100	79
0.91467	78
0.91833	78
0.92200	73
0.92567	68
0.92933	63
0.93300	58
0.93667	57
0.94033	60
0.94400	66
0.94767	73
0.95133	78
0.95500	77
0.95867	73
0.96233	68
0.96600	67
0.96967	65
0.97333	62
0.97700	55
0.98067	47
0.98433	42
0.98800	44
0.99167	49
0.99533	58
0.99900	69
1.00267	73
1.00633	72
1.01000	72
1.01367	72
1.01733	73
1.02100	77
1.02467	87
1.02833	98
1.03200	100
1.03567	95
1.03933	90
1.04300	86
1.04667	83
1.05033	77
1.05400	71
1.05767	67
1.06133	63
1.06500	65
1.06867	75
1.07233	78
1.07600	71
1.07967	62
1.08333	53
1.08700	48
1.09067	51
1.09433	56
1.09800	60
1.10167	62
1.10533	64
1.10900	65
1.11267	64
1.11633	63
1.12000	63
1.12367	63
1.12733	55
1.13100	45
1.13467	37
1.13833	36
1.14200	41
1.14567	48
1.14933	54
1.15300	60
1.15667	65
1.16033	68
1.16400	69
1.16767	67
1.17133	62
1.17500	58
1.17867	60
1.18233	62
1.18600	66
1.18967	71
1.19333	73
1.19700	76
1.20067	78
1.20433	78
1.20800	73
1.21167	63
1.21533	49
1.21900	38
1.22267	35
1.22633	37
1.23000	41
1.23367	44
1.23733	49
1.24100	56
1.24467	67
1.24833	67
1.25200	63
1.25567	56
1.25933	49
1.26300	44
1.26667	39
1.27033	34
1.27400	28
1.27767	21
1.28133	14
1.28500	8
1.28867	9
1.29233	15
1.29600	21
1.29967	28
1.30333	32
1.30700	33
1.31067	35
1.31433	39
1.31800	41
1.32167	42
1.32533	43
1.32900	40
1.33267	37
1.33633	37
1.34000	38
1.34367	41
1.34733	37
1.35100	30
1.35467	24
1.35833	17
1.36200	17
1.36567	21
1.36933	24
1.37300	27
1.37667	32
1.38033	37
1.38400	39
1.38767	37
1.39133	32
1.39500	26
1.39867	22
1.40233	22
1.40600	26
1.40967	28
1.41333	28
1.41700	27
1.42067	26
1.42433	29
1.42800	31
1.43167	30
1.43533	29
1.43900	37
1.44267	79
1.44633	237
1.45000	712
1.45367	1918
1.45733	4138
1.46100	7013
1.46467	9875
1.46833	12254
1.47200	13928
1.47567	14764
1.47933	14618
1.48300	13467
1.48667	11535
1.49033	9235
1.49400	6985
1.49767	5051
1.50133	3526
1.50500	2391
1.50867	1581
1.51233	1021
1.51600	644
1.51967	393
1.52333	226
1.52700	115
1.53067	45
1.53433	5
1.53800	-14
1.54167	10
1.54533	132
1.54900	391
1.55267	756
1.55633	1145
1.56000	1486
1.56367	1743
1.56733	1899
1.57100	1926
1.57467	1811
1.57833	1564
1.58200	1238
1.58567	905
1.58933	614
1.59300	387
1.59667	224
1.60033	116
1.60400	48
1.60767	7
1.61133	-15
1.61500	-25
1.61867	-31
1.62233	-36
1.62600	-42
1.62967	-47
1.63333	-53
1.63700	-56
1.64067	-54
1.64433	-48
1.64800	-40
1.65167	-34
1.65533	-33
1.65900	-32
1.66267	-30
1.66633	-26
1.67000	-23
1.67367	-24
1.67733	-29
1.68100	-33
1.68467	-35
1.68833	-36
1.69200	-39
1.69567	-45
1.69933	-50
1.70300	-49
1.70667	-43
1.71033	-36
1.71400	-28
1.71767	-22
1.72133	-17
1.72500	-16
1.72867	-19
1.73233	-23
1.73600	-23
1.73967	-21
1.74333	-19
1.74700	-21
1.75067	-23
1.75433	-23
1.75800	-21
1.76167	-18
1.76533	-14
1.76900	-8
1.77267	1
1.77633	6
1.78000	6
1.78367	5
1.78733	2
1.79100	2
1.79467	3
1.79833	3
1.80200	2
1.80567	-3
1.80933	-8
1.81300	-9
1.81667	-7
1.82033	-1
1.82400	-2
1.82767	-5
1.83133	-5
1.83500	-3
1.83867	-1
1.84233	1
1.84600	4
1.84967	6
1.85333	7
1.85700	9
1.86067	10
1.86433	10
1.86800	11
1.87167	20
1.87533	34
1.87900	41
1.88267	36
1.88633	25
1.89000	17
1.89367	14
1.89733	16
1.90100	24
1.90467	32
1.90833	38
1.91200	38
1.91567	35
1.91933	34
1.92300	34
1.92667	34
1.93033	36
1.93400	36
1.93767	30
1.94133	24
1.94500	22
1.94867	21
1.95233	34
1.95600	148
1.95967	863
1.96333	4481
1.96700	18493
1.97067	59957
1.97433	154208
1.97800	319165
1.98167	546031
1.98533	798257
1.98900	1030050
1.99267	1202562
1.99633	1291719
2.00000	1288660
2.00367	1199965
2.00733	1046692
2.01100	859247
2.01467	668553
2.01833	497585
2.02200	357939
2.02567	251455
2.02933	174184
2.03300	120018
2.03667	82895
2.04033	57795
2.04400	40923
2.04767	29576
2.05133	21898
2.05500	16647
2.05867	13000
2.06233	10423
2.06600	8557
2.06967	7171
2.07333	6119
2.07700	5303
2.08067	4656
2.08433	4133
2.08800	3706
2.09167	3352
2.09533	3055
2.09900	2801
2.10267	2579
2.10633	2388
2.11000	2229
2.11367	2093
2.11733	1973
2.12100	1866
2.12467	1767
2.12833	1674
2.13200	1586
2.13567	1506
2.13933	1433
2.14300	1365
2.14667	1305
2.15033	1252
2.15400	1210
2.15767	1167
2.16133	1121
2.16500	1073
2.16867	1030
2.17233	990
2.17600	946
2.17967	916
2.18333	897
2.18700	874
2.19067	850
2.19433	829
2.19800	813
2.20167	794
2.20533	773
2.20900	751
2.21267	733
2.21633	720
2.22000	706
2.22367	693
2.22733	679
2.23100	669
2.23467	661
2.23833	651
2.24200	635
2.24567	616
2.24933	598
2.25300	580
2.25667	566
2.26033	553
2.26400	538
2.26767	524
2.27133	514
2.27500	508
2.27867	507
2.28233	506
2.28600	505
2.28967	503
2.29333	502
2.29700	499
2.30067	492
2.30433	484
2.30800	475
2.31167	467
2.31533	464
2.31900	464
2.32267	464
2.32633	461
2.33000	452
2.33367	445
2.33733	442
2.34100	440
2.34467	439
2.34833	440
2.35200	438
2.35567	432
2.35933	423
2.36300	419
2.36667	416
2.37033	410
2.37400	405
2.37767	403
2.38133	402
2.38500	399
2.38867	396
2.39233	394
2.39600	395
2.39967	398
2.40333	400
2.40700	398
2.41067	393
2.41433	390
2.41800	389
2.42167	387
2.42533	384
2.42900	380
2.43267	377
2.43633	377
2.44000	381
2.44367	388
2.44733	392
2.45100	392
2.45467	391
2.45833	389
2.46200	385
2.46567	382
2.46933	381
2.47300	378
2.47667	371
2.48033	364
2.48400	357
2.48767	352
2.49133	352
2.49500	350
2.49867	347
2.50233	344
2.50600	346
2.50967	351
2.51333	355
2.51700	358
2.52067	363
2.52433	368
2.52800	372
2.53167	370
2.53533	363
2.53900	359
2.54267	361
2.54633	366
2.55000	368
2.55367	366
2.55733	359
2.56100	352
2.56467	344
2.56833	339
2.57200	339
2.57567	348
2.57933	363
2.58300	370
2.58667	365
2.59033	355
2.59400	345
2.59767	336
2.60133	328
2.60500	324
2.60867	331
2.61233	344
2.61600	353
2.61967	357
2.62333	353
2.62700	344
2.63067	336
2.63433	330
2.63800	326
2.64167	328
2.64533	336
2.64900	340
2.65267	339
2.65633	340
2.66000	339
2.66367	337
2.66733	339
2.67100	349
2.67467	361
2.67833	370
2.68200	373
2.68567	367
2.68933	357
2.69300	347
2.69667	339
2.70033	337
2.70400	339
2.70767	339
2.71133	337
2.71500	332
2.71867	331
2.72233	336
2.72600	341
2.72967	345
2.73333	349
2.73700	357
2.74067	368
2.74433	374
2.74800	376
2.75167	371
2.75533	361
2.75900	348
2.76267	343
2.76633	343
2.77000	345
2.77367	348
2.77733	347
2.78100	348
2.78467	352
2.78833	357
2.79200	361
2.79567	366
2.79933	372
2.80300	376
2.80667	373
2.81033	368
2.81400	364
2.81767	364
2.82133	364
2.82500	363
2.82867	364
2.83233	366
2.83600	369
2.83967	371
2.84333	371
2.84700	370
2.85067	366
2.85433	365
2.85800	367
2.86167	374
2.86533	381
2.86900	386
2.87267	384
2.87633	380
2.88000	377
2.88367	375
2.88733	372
2.89100	368
2.89467	365
2.89833	367
2.90200	375
2.90567	385
2.90933	398
2.91300	410
2.91667	412
2.92033	404
2.92400	389
2.92767	369
2.93133	356
2.93500	346
2.93867	335
2.94233	332
2.94600	336
2.94967	344
2.95333	351
2.95700	358
2.96067	367
2.96433	371
2.96800	370
2.97167	369
2.97533	372
2.97900	378
2.98267	386
2.98633	393
2.99000	397
2.99367	400
2.99733	399
3.00100	395
3.00467	392
3.00833	393
3.01200	389
3.01567	384
3.01933	378
3.02300	375
3.02667	372
3.03033	369
3.03400	368
3.03767	367
3.04133	367
3.04500	369
3.04867	369
3.05233	367
3.05600	365
3.05967	365
3.06333	366
3.06700	370
3.07067	376
3.07433	383
3.07800	388
3.08167	391
3.08533	389
3.08900	381
3.09267	374
3.09633	376
3.10000	382
3.10367	384
3.10733	381
3.11100	376
3.11467	372
3.11833	364
3.12200	358
3.12567	358
3.12933	361
3.13300	364
3.13667	368
3.14033	376
3.14400	382
3.14767	380
3.15133	372
3.15500	360
3.15867	349
3.16233	346
3.16600	345
3.16967	343
3.17333	340
3.17700	337
3.18067	336
3.18433	333
3.18800	327
3.19167	324
3.19533	327
3.19900	330
3.20267	326
3.20633	324
3.21000	325
3.21367	323
3.21733	320
3.22100	320
3.22467	320
3.22833	324
3.23200	335
3.23567	346
3.23933	350
3.24300	349
3.24667	347
3.25033	345
3.25400	345
3.25767	347
3.26133	346
3.26500	344
3.26867	338
3.27233	331
3.27600	326
3.27967	323
3.28333	323
3.28700	325
3.29067	325
3.29433	327
3.29800	329
3.30167	331
3.30533	334
3.30900	338
3.31267	345
3.31633	352
3.32000	355
3.32367	356
3.32733	357
3.33100	356
3.33467	350
3.33833	345
3.34200	342
3.34567	348
3.34933	357
3.35300	360
3.35667	357
3.36033	349
3.36400	343
3.36767	338
3.37133	337
3.37500	331
3.37867	323
3.38233	315
3.38600	310
3.38967	306
3.39333	308
3.39700	314
3.40067	316
3.40433	313
3.40800	311
3.41167	310
3.41533	312
3.41900	311
3.42267	314
3.42633	324
3.43000	331
3.43367	327
3.43733	315
3.44100	306
3.44467	308
3.44833	316
3.45200	319
3.45567	316
3.45933	309
3.46300	305
3.46667	304
3.47033	300
3.47400	298
3.47767	295
3.48133	293
3.48500	291
3.48867	289
3.49233	290
3.49600	290
3.49967	288
3.50333	289
3.50700	295
3.51067	301
3.51433	307
3.51800	312
3.52167	317
3.52533	317
3.52900	313
3.53267	309
3.53633	309
3.54000	313
3.54367	316
3.54733	313
3.55100	310
3.55467	313
3.55833	315
3.56200	312
3.56567	309
3.56933	310
3.57300	303
3.57667	290
3.58033	278
3.58400	275
3.58767	279
3.59133	285
3.59500	294
3.59867	306
3.60233	315
3.60600	313
3.60967	301
3.61333	287
3.61700	274
3.62067	263
3.62433	256
3.62800	251
3.63167	250
3.63533	253
3.63900	259
3.64267	270
3.64633	282
3.65000	287
3.65367	283
3.65733	275
3.66100	267
3.66467	264
3.66833	264
3.67200	265
3.67567	269
3.67933	272
3.68300	274
3.68667	274
3.69033	276
3.69400	276
3.69767	271
3.70133	262
3.70500	256
3.70867	253
3.71233	252
3.71600	251
3.71967	251
3.72333	253
3.72700	261
3.73067	272
3.73433	280
3.73800	284
3.74167	282
3.74533	277
3.74900	273
3.75267	269
3.75633	264
3.76000	257
3.76367	249
3.76733	246
3.77100	244
3.77467	246
3.77833	253
3.78200	263
3.78567	270
3.78933	267
3.79300	261
3.79667	258
3.80033	254
3.80400	249
3.80767	243
3.81133	240
3.81500	236
3.81867	233
3.82233	233
3.82600	236
3.82967	241
3.83333	245
3.83700	248
3.84067	247
3.84433	244
3.84800	242
3.85167	241
3.85533	238
3.85900	234
3.86267	231
3.86633	228
3.87000	226
3.87367	228
3.87733	232
3.88100	236
3.88467	238
3.88833	240
3.89200	244
3.89567	252
3.89933	260
3.90300	259
3.90667	251
3.91033	242
3.91400	242
3.91767	249
3.92133	253
3.92500	251
3.92867	246
3.93233	241
3.93600	233
3.93967	223
3.94333	219
3.94700	217
3.95067	217
3.95433	219
3.95800	226
3.96167	240
3.96533	256
3.96900	265
3.97267	260
3.97633	245
3.98000	229
3.98367	215
3.98733	210
3.99100	217
3.99467	230
3.99833	236

[Chromatogram (Ch2)]
Interval(msec)	220
# of Points	1091
Start Time(min)	0.002
End Time(min)	3.998
R.Time (min)	Intensity
0.00167	0
0.00533	0
0.00900	0
0.01267	0
0.01633	-0
0.02000	-0
0.02367	-1
0.02733	-1
0.03100	-1
0.03467	-2
0.03833	-2
0.04200	-2
0.04567	-1
0.04933	-1
0.05300	-1
0.05667	-1
0.06033	-1
0.06400	-1
0.06767	-1
0.07133	-1
0.07500	-1
0.07867	-1
0.08233	-1
0.08600	-1
0.08967	-1
0.09333	-1
0.09700	-0
0.10067	-0
0.10433	0
0.10800	0
0.11167	1
0.11533	1
0.11900	1
0.12267	1
0.12633	1
0.13000	2
0.13367	2
0.13733	2
0.14100	2
0.14467	2
0.14833	1
0.15200	1
0.15567	1
0.15933	1
0.16300	1
0.16667	1
0.17033	1
0.17400	1
0.17767	1
0.18133	1
0.18500	0
0.18867	0
0.19233	0
0.19600	-0
0.19967	-0
0.20333	-0
0.20700	-1
0.21067	-1
0.21433	-1
0.21800	-1
0.22167	-1
0.22533	-1
0.22900	-1
0.23267	-1
0.23633	-1
0.24000	-1
0.24367	-1
0.24733	-1
0.25100	-1
0.25467	-1
0.25833	-0
0.26200	-0
0.26567	-0
0.26933	-0
0.27300	-0
0.27667	0
0.28033	0
0.28400	1
0.28767	1
0.29133	1
0.29500	1
0.29867	1
0.30233	2
0.30600	2
0.30967	2
0.31333	3
0.31700	3
0.32067	2
0.32433	2
0.32800	2
0.33167	2
0.33533	2
0.33900	1
0.34267	1
0.34633	0
0.35000	0
0.35367	-0
0.35733	-0
0.36100	-0
0.36467	-0
0.36833	0
0.37200	0
0.37567	0
0.37933	1
0.38300	1
0.38667	0
0.39033	0
0.39400	0
0.39767	0
0.40133	0
0.40500	-0
0.40867	-0
0.41233	-0
0.41600	-0
0.41967	-1
0.42333	-1
0.42700	-1
0.43067	-2
0.43433	-2
0.43800	-3
0.44167	-4
0.44533	-4
0.44900	-4
0.45267	-4
0.45633	-4
0.46000	-4
0.46367	-3
0.46733	-3
0.47100	-3
0.47467	-3
0.47833	-3
0.48200	-3
0.48567	-3
0.48933	-3
0.49300	-3
0.49667	-3
0.50033	-3
0.50400	-3
0.50767	-3
0.51133	-2
0.51500	-2
0.51867	-2
0.52233	-2
0.52600	-2
0.52967	-2
0.53333	-2
0.53700	-3
0.54067	-3
0.54433	-3
0.54800	-3
0.55167	-3
0.55533	-3
0.55900	-3
0.56267	-3
0.56633	-2
0.57000	-2
0.57367	-2
0.57733	-1
0.58100	-1
0.58467	-0
0.58833	-0
0.59200	0
0.59567	0
0.59933	0
0.60300	0
0.60667	0
0.61033	0
0.61400	0
0.61767	0
0.62133	0
0.62500	0
0.62867	0
0.63233	0
0.63600	0
0.63967	0
0.64333	0
0.64700	0
0.65067	0
0.65433	-0
0.65800	-0
0.66167	-0
0.66533	-0
0.66900	-0
0.67267	-1
0.67633	-1
0.68000	-1
0.68367	-1
0.68733	-1
0.69100	-1
0.69467	-1
0.69833	-1
0.70200	-1
0.70567	-0
0.70933	-0
0.71300	0
0.71667	0
0.72033	0
0.72400	0
0.72767	0
0.73133	-0
0.73500	-0
0.73867	-0
0.74233	-0
0.74600	-1
0.74967	-1
0.75333	-1
0.75700	-1
0.76067	-0
0.76433	-0
0.76800	0
0.77167	0
0.77533	0
0.77900	-0
0.78267	-1
0.78633	-1
0.79000	-1
0.79367	-1
0.79733	-1
0.80100	-2
0.80467	-2
0.80833	-2
0.81200	-2
0.81567	-2
0.81933	-2
0.82300	-2
0.82667	-2
0.83033	-2
0.83400	-2
0.83767	-2
0.84133	-2
0.84500	-2
0.84867	-2
0.85233	-2
0.85600	-2
0.85967	-2
0.86333	-2
0.86700	-2
0.87067	-2
0.87433	-2
0.87800	-1
0.88167	-1
0.88533	-1
0.88900	-1
0.89267	-1
0.89633	-1
0.90000	-1
0.90367	-1
0.90733	-1
0.91100	-1
0.91467	-1
0.91833	-1
0.92200	-1
0.92567	-1
0.92933	-1
0.93300	-0
0.93667	-1
0.94033	-1
0.94400	-1
0.94767	-1
0.95133	-2
0.95500	-2
0.95867	-2
0.96233	-3
0.96600	-3
0.96967	-3
0.97333	-3
0.97700	-3
0.98067	-3
0.98433	-3
0.98800	-3
0.99167	-4
0.99533	-4
0.99900	-4
1.00267	-4
1.00633	-3
1.01000	-3
1.01367	-3
1.01733	-3
1.02100	-3
1.02467	-3
1.02833	-3
1.03200	-3
1.03567	-3
1.03933	-3
1.04300	-3
1.04667	-3
1.05033	-3
1.05400	-3
1.05767	-3
1.06133	-2
1.06500	-2
1.06867	-2
1.07233	-2
1.07600	-2
1.07967	-2
1.08333	-2
1.08700	-2
1.09067	-2
1.09433	-2
1.09800	-2
1.10167	-2
1.10533	-2
1.10900	-1
1.11267	-1
1.11633	-1
1.12000	-2
1.12367	-2
1.12733	-2
1.13100	-3
1.13467	-3
1.13833	-3
1.14200	-3
1.14567	-3
1.14933	-3
1.15300	-3
1.15667	-3
1.16033	-3
1.16400	-3
1.16767	-3
1.17133	-4
1.17500	-4
1.17867	-4
1.18233	-5
1.18600	-5
1.18967	-5
1.19333	-5
1.19700	-5
1.20067	-5
1.20433	-5
1.20800	-5
1.21167	-5
1.21533	-5
1.21900	-5
1.22267	-5
1.22633	-5
1.23000	-5
1.23367	-4
1.23733	-4
1.24100	-4
1.24467	-3
1.24833	-3
1.25200	-3
1.25567	-2
1.25933	-2
1.26300	-2
1.26667	-2
1.27033	-2
1.27400	-2
1.27767	-2
1.28133	-2
1.28500	-2
1.28867	-2
1.29233	-2
1.29600	-2
1.29967	-3
1.30333	-3
1.30700	-3
1.31067	-3
1.31433	-3
1.31800	-4
1.32167	-4
1.32533	-4
1.32900	-5
1.33267	-5
1.33633	-5
1.34000	-5
1.34367	-5
1.34733	-5
1.35100	-5
1.35467	-5
1.35833	-5
1.36200	-5
1.36567	-4
1.36933	-4
1.37300	-4
1.37667	-4
1.38033	-4
1.38400	-4
1.38767	-4
1.39133	-4
1.39500	-4
1.39867	-4
1.40233	-4
1.40600	-4
1.40967	-4
1.41333	-4
1.41700	-3
1.42067	-3
1.42433	-3
1.42800	-2
1.43167	-2
1.43533	-2
1.43900	-2
1.44267	-2
1.44633	-2
1.45000	-2
1.45367	-2
1.45733	-2
1.46100	-1
1.46467	-1
1.46833	-1
1.47200	-1
1.47567	-1
1.47933	-1
1.48300	-1
1.48667	-2
1.49033	-2
1.49400	-2
1.49767	-2
1.50133	-2
1.50500	-2
1.50867	-2
1.51233	-2
1.51600	-2
1.51967	-2
1.52333	-2
1.52700	-2
1.53067	-2
1.53433	-2
1.53800	-2
1.54167	-2
1.54533	-2
1.54900	-2
1.55267	-2
1.55633	-2
1.56000	-3
1.56367	-3
1.56733	-3
1.57100	-2
1.57467	-3
1.57833	-3
1.58200	-3
1.58567	-3
1.58933	-3
1.59300	-4
1.59667	-4
1.60033	-5
1.60400	-6
1.60767	-8
1.61133	-10
1.61500	-12
1.61867	-14
1.62233	-17
1.62600	-21
1.62967	-24
1.63333	-28
1.63700	-31
1.64067	-35
1.64433	-39
1.64800	-43
1.65167	-47
1.65533	-51
1.65900	-54
1.66267	-58
1.66633	-62
1.67000	-66
1.67367	-70
1.67733	-75
1.68100	-80
1.68467	-84
1.68833	-88
1.69200	-92
1.69567	-96
1.69933	-99
1.70300	-101
1.70667	-103
1.71033	-105
1.71400	-107
1.71767	-108
1.72133	-108
1.72500	-109
1.72867	-109
1.73233	-109
1.73600	-108
1.73967	-108
1.74333	-108
1.74700	-107
1.75067	-106
1.75433	-106
1.75800	-106
1.76167	-106
1.76533	-107
1.76900	-108
1.77267	-109
1.77633	-110
1.78000	-112
1.78367	-113
1.78733	-113
1.79100	-114
1.79467	-114
1.79833	-115
1.80200	-115
1.80567	-115
1.80933	-115
1.81300	-115
1.81667	-115
1.82033	-115
1.82400	-115
1.82767	-115
1.83133	-115
1.83500	-115
1.83867	-115
1.84233	-114
1.84600	-114
1.84967	-114
1.85333	-115
1.85700	-115
1.86067	-114
1.86433	-114
1.86800	-115
1.87167	-115
1.87533	-115
1.87900	-115
1.88267	-115
1.88633	-115
1.89000	-115
1.89367	-115
1.89733	-115
1.90100	-115
1.90467	-115
1.90833	-115
1.91200	-115
1.91567	-115
1.91933	-115
1.92300	-114
1.92667	-114
1.93033	-113
1.93400	-113
1.93767	-113
1.94133	-113
1.94500	-113
1.94867	-113
1.95233	-113
1.95600	-113
1.95967	-113
1.96333	-113
1.96700	-113
1.97067	-113
1.97433	-113
1.97800	-112
1.98167	-111
1.98533	-110
1.98900	-110
1.99267	-109
1.99633	-108
2.00000	-108
2.00367	-107
2.00733	-107
2.01100	-107
2.01467	-107
2.01833	-108
2.02200	-108
2.02567	-108
2.02933	-108
2.03300	-108
2.03667	-108
2.04033	-107
2.04400	-106
2.04767	-105
2.05133	-104
2.05500	-103
2.05867	-103
2.06233	-102
2.06600	-103
2.06967	-103
2.07333	-103
2.07700	-103
2.08067	-103
2.08433	-103
2.08800	-102
2.09167	-102
2.09533	-102
2.09900	-102
2.10267	-101
2.10633	-101
2.11000	-100
2.11367	-100
2.11733	-99
2.12100	-99
2.12467	-99
2.12833	-99
2.13200	-98
2.13567	-98
2.13933	-98
2.14300	-97
2.14667	-97
2.15033	-96
2.15400	-96
2.15767	-95
2.16133	-94
2.16500	-94
2.16867	-93
2.17233	-93
2.17600	-93
2.17967	-93
2.18333	-93
2.18700	-93
2.19067	-92
2.19433	-92
2.19800	-91
2.20167	-91
2.20533	-90
2.20900	-89
2.21267	-88
2.21633	-88
2.22000	-87
2.22367	-87
2.22733	-87
2.23100	-88
2.23467	-88
2.23833	-88
2.24200	-88
2.24567	-87
2.24933	-87
2.25300	-87
2.25667	-87
2.26033	-87
2.26400	-87
2.26767	-86
2.27133	-86
2.27500	-86
2.27867	-85
2.28233	-85
2.28600	-84
2.28967	-84
2.29333	-83
2.29700	-83
2.30067	-82
2.30433	-82
2.30800	-82
2.31167	-83
2.31533	-83
2.31900	-83
2.32267	-83
2.32633	-82
2.33000	-82
2.33367	-81
2.33733	-80
2.34100	-79
2.34467	-78
2.34833	-77
2.35200	-76
2.35567	-75
2.35933	-74
2.36300	-73
2.36667	-71
2.37033	-70
2.37400	-67
2.37767	-64
2.38133	-60
2.38500	-56
2.38867	-52
2.39233	-47
2.39600	-43
2.39967	-38
2.40333	-34
2.40700	-29
2.41067	-26
2.41433	-22
2.41800	-20
2.42167	-18
2.42533	-16
2.42900	-15
2.43267	-13
2.43633	-12
2.44000	-11
2.44367	-11
2.44733	-10
2.45100	-10
2.45467	-10
2.45833	-9
2.46200	-9
2.46567	-7
2.46933	-6
2.47300	-4
2.47667	-3
2.48033	-2
2.48400	-0
2.48767	1
2.49133	1
2.49500	2
2.49867	3
2.50233	4
2.50600	5
2.50967	6
2.51333	7
2.51700	8
2.52067	9
2.52433	10
2.52800	10
2.53167	11
2.53533	12
2.53900	13
2.54267	14
2.54633	14
2.55000	14
2.55367	14
2.55733	14
2.56100	14
2.56467	14
2.56833	14
2.57200	14
2.57567	14
2.57933	14
2.58300	14
2.58667	13
2.59033	13
2.59400	12
2.59767	12
2.60133	11
2.60500	11
2.60867	11
2.61233	11
2.61600	11
2.61967	12
2.62333	12
2.62700	13
2.63067	13
2.63433	14
2.63800	14
2.64167	15
2.64533	15
2.64900	16
2.65267	16
2.65633	16
2.66000	16
2.66367	17
2.66733	17
2.67100	17
2.67467	18
2.67833	18
2.68200	18
2.68567	18
2.68933	18
2.69300	19
2.69667	19
2.70033	19
2.70400	20
2.70767	20
2.71133	20
2.71500	21
2.71867	22
2.72233	23
2.72600	23
2.72967	24
2.73333	25
2.73700	25
2.74067	25
2.74433	25
2.74800	24
2.75167	24
2.75533	23
2.75900	22
2.76267	21
2.76633	21
2.77000	20
2.77367	20
2.77733	20
2.78100	20
2.78467	20
2.78833	20
2.79200	21
2.79567	22
2.79933	22
2.80300	23
2.80667	23
2.81033	24
2.81400	24
2.81767	24
2.82133	24
2.82500	24
2.82867	25
2.83233	25
2.83600	25
2.83967	25
2.84333	24
2.84700	22
2.85067	18
2.85433	12
2.85800	3
2.86167	-9
2.86533	-25
2.86900	-46
2.87267	-70
2.87633	-100
2.88000	-133
2.88367	-171
2.88733	-212
2.89100	-257
2.89467	-305
2.89833	-356
2.90200	-409
2.90567	-463
2.90933	-518
2.91300	-573
2.91667	-629
2.92033	-684
2.92400	-739
2.92767	-792
2.93133	-843
2.93500	-896
2.93867	-953
2.94233	-1012
2.94600	-1063
2.94967	-1096
2.95333	-1105
2.95700	-1087
2.96067	-1046
2.96433	-988
2.96800	-917
2.97167	-838
2.97533	-757
2.97900	-677
2.98267	-600
2.98633	-528
2.99000	-462
2.99367	-402
2.99733	-347
3.00100	-299
3.00467	-256
3.00833	-218
3.01200	-186
3.01567	-157
3.01933	-133
3.02300	-112
3.02667	-93
3.03033	-78
3.03400	-64
3.03767	-53
3.04133	-43
3.04500	-35
3.04867	-27
3.05233	-21
3.05600	-16
3.05967	-12
3.06333	-8
3.06700	-5
3.07067	-2
3.07433	0
3.07800	2
3.08167	4
3.08533	5
3.08900	6
3.09267	7
3.09633	8
3.10000	9
3.10367	9
3.10733	10
3.11100	10
3.11467	11
3.11833	11
3.12200	11
3.12567	12
3.12933	12
3.13300	12
3.13667	13
3.14033	13
3.14400	13
3.14767	13
3.15133	14
3.15500	14
3.15867	14
3.16233	14
3.16600	15
3.16967	15
3.17333	16
3.17700	16
3.18067	16
3.18433	17
3.18800	17
3.19167	17
3.19533	17
3.19900	18
3.20267	18
3.20633	18
3.21000	18
3.21367	19
3.21733	19
3.22100	19
3.22467	19
3.22833	19
3.23200	19
3.23567	19
3.23933	20
3.24300	20
3.24667	20
3.25033	20
3.25400	20
3.25767	20
3.26133	20
3.26500	20
3.26867	20
3.27233	20
3.27600	20
3.27967	20
3.28333	20
3.28700	20
3.29067	20
3.29433	20
3.29800	20
3.30167	20
3.30533	20
3.30900	20
3.31267	20
3.31633	20
3.32000	20
3.32367	20
3.32733	20
3.33100	21
3.33467	21
3.33833	21
3.34200	21
3.34567	22
3.34933	22
3.35300	22
3.35667	22
3.36033	23
3.36400	23
3.36767	23
3.37133	23
3.37500	23
3.37867	23
3.38233	23
3.38600	23
3.38967	23
3.39333	23
3.39700	23
3.40067	23
3.40433	23
3.40800	23
3.41167	23
3.41533	24
3.41900	24
3.42267	24
3.42633	24
3.43000	24
3.43367	24
3.43733	24
3.44100	24
3.44467	25
3.44833	25
3.45200	25
3.45567	25
3.45933	25
3.46300	25
3.46667	25
3.47033	25
3.47400	25
3.47767	25
3.48133	25
3.48500	26
3.48867	26
3.49233	26
3.49600	26
3.49967	26
3.50333	26
3.50700	26
3.51067	26
3.51433	26
3.51800	26
3.52167	25
3.52533	25
3.52900	25
3.53267	25
3.53633	25
3.54000	25
3.54367	25
3.54733	25
3.55100	25
3.55467	25
3.55833	25
3.56200	24
3.56567	24
3.56933	24
3.57300	24
3.57667	24
3.58033	24
3.58400	24
3.58767	24
3.59133	23
3.59500	23
3.59867	23
3.60233	23
3.60600	23
3.60967	23
3.61333	23
3.61700	23
3.62067	23
3.62433	23
3.62800	23
3.63167	23
3.63533	23
3.63900	23
3.64267	23
3.64633	23
3.65000	22
3.65367	22
3.65733	22
3.66100	22
3.66467	22
3.66833	22
3.67200	22
3.67567	22
3.67933	23
3.68300	23
3.68667	23
3.69033	23
3.69400	24
3.69767	24
3.70133	24
3.70500	24
3.70867	24
3.71233	24
3.71600	24
3.71967	24
3.72333	25
3.72700	25
3.73067	25
3.73433	25
3.73800	25
3.74167	25
3.74533	25
3.74900	25
3.75267	25
3.75633	24
3.76000	24
3.76367	24
3.76733	24
3.77100	24
3.77467	24
3.77833	24
3.78200	24
3.78567	24
3.78933	24
3.79300	24
3.79667	24
3.80033	24
3.80400	24
3.80767	24
3.81133	23
3.81500	23
3.81867	23
3.82233	23
3.82600	22
3.82967	22
3.83333	22
3.83700	22
3.84067	22
3.84433	22
3.84800	21
3.85167	21
3.85533	22
3.85900	22
3.86267	22
3.86633	22
3.87000	22
3.87367	23
3.87733	23
3.88100	23
3.88467	23
3.88833	23
3.89200	23
3.89567	23
3.89933	23
3.90300	23
3.90667	23
3.91033	23
3.91400	23
3.91767	23
3.92133	23
3.92500	23
3.92867	23
3.93233	23
3.93600	23
3.93967	24
3.94333	24
3.94700	24
3.95067	24
3.95433	25
3.95800	25
3.96167	25
3.96533	25
3.96900	25
3.97267	25
3.97633	24
3.98000	24
3.98367	24
3.98733	24
3.99100	24
3.99467	24
3.99833	23

[Chromatogram (Ch3)]
Interval(msec)	220
# of Points	1091
Start Time(min)	0.002
End Time(min)	3.998
R.Time (min)	Intensity
0.00167	-1
0.00533	1
0.00900	4
0.01267	6
0.01633	6
0.02000	5
0.02367	3
0.02733	2
0.03100	1
0.03467	0
0.03833	2
0.04200	3
0.04567	3
0.04933	4
0.05300	2
0.05667	1
0.06033	3
0.06400	5
0.06767	7
0.07133	8
0.07500	8
0.07867	8
0.08233	6
0.08600	4
0.08967	4
0.09333	4
0.09700	2
0.10067	3
0.10433	6
0.10800	8
0.11167	9
0.11533	7
0.11900	5
0.12267	4
0.12633	2
0.13000	-1
0.13367	-3
0.13733	-1
0.14100	1
0.14467	2
0.14833	2
0.15200	1
0.15567	1
0.15933	2
0.16300	2
0.16667	0
0.17033	-2
0.17400	-3
0.17767	-2
0.18133	-1
0.18500	-3
0.18867	-3
0.19233	-3
0.19600	-5
0.19967	-5
0.20333	-4
0.20700	-6
0.21067	-8
0.21433	-7
0.21800	-4
0.22167	-3
0.22533	-4
0.22900	-4
0.23267	-3
0.23633	-1
0.24000	1
0.24367	-0
0.24733	-2
0.25100	-3
0.25467	-2
0.25833	-1
0.26200	-1
0.26567	-3
0.26933	-4
0.27300	-5
0.27667	-6
0.28033	-6
0.28400	-6
0.28767	-7
0.29133	-7
0.29500	-6
0.29867	-5
0.30233	-5
0.30600	-4
0.30967	-3
0.31333	-2
0.31700	-2
0.32067	-2
0.32433	-3
0.32800	-4
0.33167	-5
0.33533	-4
0.33900	-3
0.34267	-3
0.34633	-4
0.35000	-5
0.35367	-7
0.35733	-9
0.36100	-7
0.36467	-3
0.36833	-2
0.37200	-2
0.37567	-1
0.37933	-1
0.38300	-3
0.38667	-6
0.39033	-6
0.39400	-5
0.39767	-5
0.40133	-5
0.40500	-5
0.40867	-5
0.41233	-4
0.41600	-4
0.41967	-5
0.42333	-7
0.42700	-6
0.43067	-5
0.43433	-5
0.43800	-6
0.44167	-7
0.44533	-6
0.44900	-7
0.45267	-7
0.45633	-6
0.46000	-6
0.46367	-7
0.46733	-7
0.47100	-5
0.47467	-4
0.47833	-3
0.48200	-1
0.48567	-1
0.48933	-1
0.49300	-3
0.49667	-4
0.50033	-5
0.50400	-8
0.50767	-11
0.51133	-11
0.51500	-11
0.51867	-11
0.52233	-11
0.52600	-13
0.52967	-15
0.53333	-15
0.53700	-12
0.54067	-10
0.54433	-7
0.54800	-7
0.55167	-8
0.55533	-9
0.55900	-10
0.56267	-10
0.56633	-11
0.57000	-9
0.57367	-8
0.57733	-7
0.58100	-7
0.58467	-9
0.58833	-11
0.59200	-11
0.59567	-11
0.59933	-11
0.60300	-11
0.60667	-11
0.61033	-10
0.61400	-6
0.61767	-6
0.62133	-7
0.62500	-7
0.62867	-9
0.63233	-10
0.63600	-10
0.63967	-10
0.64333	-10
0.64700	-9
0.65067	-7
0.65433	-7
0.65800	-4
0.66167	-3
0.66533	-4
0.66900	-5
0.67267	-6
0.67633	-6
0.68000	-6
0.68367	-6
0.68733	-5
0.69100	-3
0.69467	-3
0.69833	-4
0.70200	-5
0.70567	-6
0.70933	-6
0.71300	-3
0.71667	-1
0.72033	-1
0.72400	1
0.72767	2
0.73133	2
0.73500	1
0.73867	-0
0.74233	-3
0.74600	-6
0.74967	-7
0.75333	-6
0.75700	-5
0.76067	-4
0.76433	-3
0.76800	-2
0.77167	-1
0.77533	-1
0.77900	-0
0.78267	1
0.78633	2
0.79000	4
0.79367	7
0.79733	8
0.80100	8
0.80467	8
0.80833	7
0.81200	7
0.81567	8
0.81933	8
0.82300	8
0.82667	7
0.83033	7
0.83400	7
0.83767	10
0.84133	13
0.84500	14
0.84867	13
0.85233	11
0.85600	11
0.85967	12
0.86333	14
0.86700	15
0.87067	15
0.87433	17
0.87800	15
0.88167	15
0.88533	15
0.88900	13
0.89267	12
0.89633	13
0.90000	14
0.90367	13
0.90733	12
0.91100	13
0.91467	15
0.91833	13
0.92200	11
0.92567	10
0.92933	10
0.93300	12
0.93667	13
0.94033	12
0.94400	12
0.94767	13
0.95133	14
0.95500	15
0.95867	16
0.96233	17
0.96600	16
0.96967	17
0.97333	18
0.97700	17
0.98067	15
0.98433	14
0.98800	14
0.99167	13
0.99533	13
0.99900	14
1.00267	16
1.00633	18
1.01000	18
1.01367	20
1.01733	20
1.02100	20
1.02467	18
1.02833	18
1.03200	19
1.03567	20
1.03933	19
1.04300	18
1.04667	16
1.05033	16
1.05400	16
1.05767	15
1.06133	15
1.06500	16
1.06867	16
1.07233	16
1.07600	20
1.07967	21
1.08333	21
1.08700	19
1.09067	18
1.09433	17
1.09800	17
1.10167	18
1.10533	18
1.10900	16
1.11267	17
1.11633	17
1.12000	17
1.12367	18
1.12733	18
1.13100	15
1.13467	13
1.13833	14
1.14200	14
1.14567	14
1.14933	14
1.15300	12
1.15667	11
1.16033	12
1.16400	12
1.16767	14
1.17133	14
1.17500	13
1.17867	12
1.18233	12
1.18600	14
1.18967	16
1.19333	16
1.19700	16
1.20067	14
1.20433	12
1.20800	9
1.21167	10
1.21533	12
1.21900	14
1.22267	16
1.22633	18
1.23000	18
1.23367	18
1.23733	19
1.24100	20
1.24467	21
1.24833	23
1.25200	23
1.25567	22
1.25933	20
1.26300	19
1.26667	21
1.27033	21
1.27400	21
1.27767	21
1.28133	21
1.28500	20
1.28867	22
1.29233	23
1.29600	23
1.29967	24
1.30333	24
1.30700	23
1.31067	24
1.31433	25
1.31800	25
1.32167	22
1.32533	20
1.32900	20
1.33267	20
1.33633	20
1.34000	21
1.34367	22
1.34733	24
1.35100	25
1.35467	27
1.35833	26
1.36200	25
1.36567	26
1.36933	26
1.37300	28
1.37667	29
1.38033	29
1.38400	29
1.38767	28
1.39133	29
1.39500	29
1.39867	29
1.40233	27
1.40600	25
1.40967	24
1.41333	24
1.41700	27
1.42067	31
1.42433	32
1.42800	32
1.43167	31
1.43533	31
1.43900	30
1.44267	31
1.44633	29
1.45000	27
1.45367	27
1.45733	27
1.46100	26
1.46467	26
1.46833	29
1.47200	30
1.47567	29
1.47933	27
1.48300	25
1.48667	26
1.49033	27
1.49400	26
1.49767	25
1.50133	25
1.50500	26
1.50867	28
1.51233	30
1.51600	32
1.51967	30
1.52333	28
1.52700	27
1.53067	27
1.53433	27
1.53800	28
1.54167	31
1.54533	32
1.54900	31
1.55267	30
1.55633	29
1.56000	29
1.56367	31
1.56733	30
1.57100	29
1.57467	27
1.57833	27
1.58200	28
1.58567	27
1.58933	28
1.59300	29
1.59667	30
1.60033	30
1.60400	31
1.60767	31
1.61133	32
1.61500	33
1.61867	34
1.62233	35
1.62600	36
1.62967	38
1.63333	38
1.63700	38
1.64067	39
1.64433	38
1.64800	38
1.65167	40
1.65533	41
1.65900	41
1.66267	40
1.66633	40
1.67000	40
1.67367	40
1.67733	40
1.68100	40
1.68467	40
1.68833	40
1.69200	40
1.69567	42
1.69933	46
1.70300	48
1.70667	48
1.71033	48
1.71400	47
1.71767	45
1.72133	44
1.72500	43
1.72867	41
1.73233	41
1.73600	43
1.73967	44
1.74333	45
1.74700	44
1.75067	43
1.75433	43
1.75800	44
1.76167	45
1.76533	47
1.76900	47
1.77267	46
1.77633	45
1.78000	45
1.78367	45
1.78733	44
1.79100	43
1.79467	44
1.79833	47
1.80200	47
1.80567	47
1.80933	47
1.81300	48
1.81667	49
1.82033	50
1.82400	50
1.82767	52
1.83133	53
1.83500	52
1.83867	54
1.84233	55
1.84600	56
1.84967	57
1.85333	58
1.85700	57
1.86067	57
1.86433	58
1.86800	57
1.87167	57
1.87533	58
1.87900	59
1.88267	61
1.88633	65
1.89000	66
1.89367	65
1.89733	64
1.90100	62
1.90467	60
1.90833	63
1.91200	66
1.91567	68
1.91933	67
1.92300	66
1.92667	66
1.93033	66
1.93400	68
1.93767	68
1.94133	68
1.94500	69
1.94867	70
1.95233	73
1.95600	75
1.95967	75
1.96333	73
1.96700	74
1.97067	77
1.97433	79
1.97800	80
1.98167	80
1.98533	82
1.98900	84
1.99267	85
1.99633	86
2.00000	86
2.00367	88
2.00733	91
2.01100	92
2.01467	90
2.01833	89
2.02200	89
2.02567	92
2.02933	95
2.03300	96
2.03667	99
2.04033	102
2.04400	106
2.04767	108
2.05133	109
2.05500	111
2.05867	110
2.06233	110
2.06600	111
2.06967	111
2.07333	112
2.07700	113
2.08067	114
2.08433	117
2.08800	118
2.09167	121
2.09533	124
2.09900	124
2.10267	126
2.10633	128
2.11000	128
2.11367	130
2.11733	129
2.12100	128
2.12467	129
2.12833	131
2.13200	132
2.13567	134
2.13933	137
2.14300	142
2.14667	145
2.15033	147
2.15400	149
2.15767	152
2.16133	153
2.16500	154
2.16867	155
2.17233	155
2.17600	156
2.17967	158
2.18333	159
2.18700	160
2.19067	162
2.19433	162
2.19800	161
2.20167	160
2.20533	161
2.20900	163
2.21267	163
2.21633	166
2.22000	168
2.22367	170
2.22733	171
2.23100	174
2.23467	177
2.23833	178
2.24200	178
2.24567	179
2.24933	183
2.25300	186
2.25667	187
2.26033	189
2.26400	188
2.26767	189
2.27133	188
2.27500	187
2.27867	186
2.28233	188
2.28600	190
2.28967	192
2.29333	193
2.29700	194
2.30067	193
2.30433	194
2.30800	195
2.31167	198
2.31533	201
2.31900	204
2.32267	207
2.32633	208
2.33000	208
2.33367	210
2.33733	212
2.34100	214
2.34467	216
2.34833	216
2.35200	215
2.35567	215
2.35933	216
2.36300	219
2.36667	220
2.37033	222
2.37400	224
2.37767	224
2.38133	225
2.38500	224
2.38867	222
2.39233	224
2.39600	228
2.39967	232
2.40333	234
2.40700	236
2.41067	237
2.41433	239
2.41800	243
2.42167	245
2.42533	248
2.42900	249
2.43267	249
2.43633	249
2.44000	253
2.44367	311
2.44733	459
2.45100	622
2.45467	758
2.45833	835
2.46200	840
2.46567	798
2.46933	744
2.47300	695
2.47667	663
2.48033	638
2.48400	605
2.48767	561
2.49133	509
2.49500	458
2.49867	418
2.50233	390
2.50600	373
2.50967	364
2.51333	368
2.51700	384
2.52067	407
2.52433	429
2.52800	441
2.53167	441
2.53533	429
2.53900	405
2.54267	374
2.54633	338
2.55000	306
2.55367	276
2.55733	253
2.56100	235
2.56467	223
2.56833	215
2.57200	211
2.57567	206
2.57933	200
2.58300	199
2.58667	197
2.59033	197
2.59400	199
2.59767	202
2.60133	204
2.60500	205
2.60867	204
2.61233	200
2.61600	193
2.61967	184
2.62333	175
2.62700	167
2.63067	158
2.63433	150
2.63800	143
2.64167	137
2.64533	129
2.64900	120
2.65267	111
2.65633	100
2.66000	89
2.66367	80
2.66733	70
2.67100	60
2.67467	49
2.67833	41
2.68200	35
2.68567	32
2.68933	29
2.69300	28
2.69667	27
2.70033	28
2.70400	31
2.70767	36
2.71133	41
2.71500	45
2.71867	49
2.72233	52
2.72600	55
2.72967	59
2.73333	63
2.73700	64
2.74067	65
2.74433	66
2.74800	67
2.75167	70
2.75533	74
2.75900	78
2.76267	79
2.76633	82
2.77000	87
2.77367	91
2.77733	94
2.78100	97
2.78467	99
2.78833	103
2.79200	107
2.79567	112
2.79933	116
2.80300	119
2.80667	123
2.81033	128
2.81400	135
2.81767	146
2.82133	158
2.82500	177
2.82867	209
2.83233	271
2.83600	385
2.83967	571
2.84333	848
2.84700	1225
2.85067	1699
2.85433	2247
2.85800	2835
2.86167	3418
2.86533	3948
2.86900	4377
2.87267	4679
2.87633	4841
2.88000	4866
2.88367	4767
2.88733	4566
2.89100	4293
2.89467	3973
2.89833	3632
2.90200	3288
2.90567	2956
2.90933	2639
2.91300	2345
2.91667	2075
2.92033	1834
2.92400	1619
2.92767	1429
2.93133	1260
2.93500	1112
2.93867	981
2.94233	867
2.94600	769
2.94967	683
2.95333	608
2.95700	542
2.96067	486
2.96433	438
2.96800	396
2.97167	358
2.97533	326
2.97900	298
2.98267	274
2.98633	251
2.99000	230
2.99367	212
2.99733	196
3.00100	183
3.00467	173
3.00833	164
3.01200	156
3.01567	152
3.01933	147
3.02300	142
3.02667	135
3.03033	131
3.03400	127
3.03767	124
3.04133	123
3.04500	121
3.04867	120
3.05233	119
3.05600	118
3.05967	118
3.06333	118
3.06700	118
3.07067	117
3.07433	117
3.07800	117
3.08167	118
3.08533	118
3.08900	119
3.09267	120
3.09633	121
3.10000	119
3.10367	118
3.10733	116
3.11100	116
3.11467	117
3.11833	118
3.12200	119
3.12567	120
3.12933	120
3.13300	121
3.13667	120
3.14033	122
3.14400	124
3.14767	124
3.15133	125
3.15500	126
3.15867	124
3.16233	122
3.16600	121
3.16967	121
3.17333	122
3.17700	123
3.18067	124
3.18433	123
3.18800	126
3.19167	129
3.19533	131
3.19900	130
3.20267	129
3.20633	130
3.21000	132
3.21367	134
3.21733	137
3.22100	139
3.22467	141
3.22833	143
3.23200	147
3.23567	149
3.23933	150
3.24300	152
3.24667	153
3.25033	154
3.25400	156
3.25767	156
3.26133	158
3.26500	160
3.26867	163
3.27233	167
3.27600	170
3.27967	172
3.28333	173
3.28700	173
3.29067	174
3.29433	174
3.29800	175
3.30167	177
3.30533	178
3.30900	180
3.31267	182
3.31633	183
3.32000	183
3.32367	183
3.32733	184
3.33100	188
3.33467	191
3.33833	193
3.34200	195
3.34567	197
3.34933	199
3.35300	201
3.35667	204
3.36033	209
3.36400	211
3.36767	211
3.37133	210
3.37500	209
3.37867	209
3.38233	211
3.38600	213
3.38967	215
3.39333	219
3.39700	224
3.40067	227
3.40433	229
3.40800	232
3.41167	234
3.41533	233
3.41900	232
3.42267	231
3.42633	233
3.43000	233
3.43367	234
3.43733	235
3.44100	236
3.44467	235
3.44833	234
3.45200	236
3.45567	238
3.45933	240
3.46300	241
3.46667	244
3.47033	245
3.47400	247
3.47767	247
3.48133	246
3.48500	245
3.48867	245
3.49233	245
3.49600	247
3.49967	249
3.50333	251
3.50700	251
3.51067	251
3.51433	252
3.51800	251
3.52167	251
3.52533	250
3.52900	249
3.53267	250
3.53633	250
3.54000	250
3.54367	250
3.54733	250
3.55100	250
3.55467	250
3.55833	250
3.56200	249
3.56567	249
3.56933	252
3.57300	254
3.57667	255
3.58033	255
3.58400	254
3.58767	253
3.59133	253
3.59500	253
3.59867	253
3.60233	253
3.60600	249
3.60967	243
3.61333	241
3.61700	242
3.62067	230
3.62433	204
3.62800	182
3.63167	168
3.63533	159
3.63900	155
3.64267	155
3.64633	162
3.65000	174
3.65367	191
3.65733	211
3.66100	230
3.66467	249
3.66833	267
3.67200	284
3.67567	301
3.67933	319
3.68300	338
3.68667	358
3.69033	378
3.69400	397
3.69767	415
3.70133	433
3.70500	448
3.70867	461
3.71233	473
3.71600	484
3.71967	493
3.72333	500
3.72700	507
3.73067	514
3.73433	520
3.73800	522
3.74167	527
3.74533	532
3.74900	536
3.75267	540
3.75633	541
3.76000	542
3.76367	545
3.76733	547
3.77100	548
3.77467	551
3.77833	554
3.78200	556
3.78567	557
3.78933	557
3.79300	558
3.79667	559
3.80033	562
3.80400	563
3.80767	563
3.81133	564
3.81500	566
3.81867	569
3.82233	572
3.82600	574
3.82967	574
3.83333	574
3.83700	575
3.84067	574
3.84433	573
3.84800	572
3.85167	570
3.85533	569
3.85900	570
3.86267	570
3.86633	570
3.87000	570
3.87367	569
3.87733	568
3.88100	568
3.88467	570
3.88833	569
3.89200	567
3.89567	566
3.89933	565
3.90300	564
3.90667	563
3.91033	563
3.91400	564
3.91767	565
3.92133	564
3.92500	565
3.92867	562
3.93233	559
3.93600	558
3.93967	557
3.94333	557
3.94700	556
3.95067	554
3.95433	552
3.95800	551
3.96167	553
3.96533	555
3.96900	554
3.97267	554
3.97633	553
3.98000	551
3.98367	550
3.98733	549
3.99100	548
3.99467	547
3.99833	546

[Status Trace (Column Oven Temperature)]
Interval(msec)	1000
# of Points	240
Start Time(min)	0.004
End Time(min)	3.988
Intensity Units	
Intensity Multiplier	1
R.Time (min)	Intensity
0.00437	35.04
0.02103	35.04
0.03770	35.05
0.05437	35.04
0.07103	35.05
0.08770	35.04
0.10437	35.04
0.12103	35.05
0.13770	35.05
0.15437	35.04
0.17103	35.04
0.18770	35.04
0.20437	35.05
0.22103	35.04
0.23770	35.04
0.25437	35.04
0.27103	35.03
0.28770	35.02
0.30437	35.01
0.32103	35.00
0.33770	35.00
0.35437	34.99
0.37103	34.99
0.38770	34.98
0.40437	34.99
0.42103	34.99
0.43770	35.01
0.45437	35.02
0.47103	35.03
0.48770	35.03
0.50437	35.04
0.52103	35.04
0.53770	35.04
0.55437	35.03
0.57103	35.03
0.58770	35.03
0.60437	35.02
0.62103	35.02
0.63770	35.02
0.65437	35.02
0.67103	35.02
0.68770	35.01
0.70437	35.01
0.72103	35.00
0.73770	35.00
0.75437	34.99
0.77103	34.99
0.78770	34.98
0.80437	34.99
0.82103	34.99
0.83770	34.99
0.85437	35.00
0.87103	34.99
0.88770	34.99
0.90437	34.99
0.92103	34.98
0.93770	34.98
0.95437	34.98
0.97103	34.99
0.98770	34.99
1.00437	35.00
1.02103	35.00
1.03770	35.00
1.05437	35.01
1.07103	35.00
1.08770	34.99
1.10437	34.99
1.12103	34.99
1.13770	34.99
1.15437	34.99
1.17103	34.99
1.18770	35.00
1.20437	35.01
1.22103	35.01
1.23770	35.00
1.25437	35.00
1.27103	34.99
1.28770	34.99
1.30437	35.00
1.32103	35.01
1.33770	35.02
1.35437	35.02
1.37103	35.03
1.38770	35.02
1.40437	35.01
1.42103	35.00
1.43770	35.01
1.45437	35.00
1.47103	35.00
1.48770	34.99
1.50437	34.98
1.52103	34.98
1.53770	34.97
1.55437	34.97
1.57103	34.97
1.58770	34.98
1.60437	35.03
1.62103	35.15
1.63770	35.33
1.65437	35.57
1.67103	35.89
1.68770	36.26
1.70437	36.63
1.72103	36.97
1.73770	37.28
1.75437	37.59
1.77103	37.93
1.78770	38.26
1.80437	38.59
1.82103	38.93
1.83770	39.26
1.85437	39.58
1.87103	39.93
1.88770	40.25
1.90437	40.60
1.92103	40.93
1.93770	41.25
1.95437	41.58
1.97103	41.92
1.98770	42.23
2.00437	42.56
2.02103	42.91
2.03770	43.22
2.05437	43.53
2.07103	43.87
2.08770	44.19
2.10437	44.52
2.12103	44.83
2.13770	45.19
2.15437	45.49
2.17103	45.82
2.18770	46.15
2.20437	46.47
2.22103	46.78
2.23770	47.12
2.25437	47.44
2.27103	47.77
2.28770	48.09
2.30437	48.43
2.32103	48.77
2.33770	49.08
2.35437	49.36
2.37103	49.58
2.38770	49.66
2.40437	49.66
2.42103	49.67
2.43770	49.67
2.45437	49.69
2.47103	49.69
2.48770	49.72
2.50437	49.73
2.52103	49.74
2.53770	49.72
2.55437	49.75
2.57103	49.76
2.58770	49.78
2.60437	49.80
2.62103	49.82
2.63770	49.82
2.65437	49.83
2.67103	49.84
2.68770	49.86
2.70437	49.87
2.72103	49.85
2.73770	49.84
2.75437	49.86
2.77103	49.88
2.78770	49.88
2.80437	49.87
2.82103	49.86
2.83770	49.85
2.85437	49.87
2.87103	49.89
2.88770	49.91
2.90437	49.92
2.92103	49.94
2.93770	49.96
2.95437	49.97
2.97103	49.98
2.98770	49.98
3.00437	49.98
3.02103	49.98
3.03770	49.98
3.05437	49.98
3.07103	49.98
3.08770	49.99
3.10437	50.00
3.12103	50.01
3.13770	50.02
3.15437	50.03
3.17103	50.04
3.18770	50.04
3.20437	50.04
3.22103	50.05
3.23770	50.05
3.25437	50.06
3.27103	50.07
3.28770	50.08
3.30437	50.09
3.32103	50.10
3.33770	50.10
3.35437	50.09
3.37103	50.09
3.38770	50.09
3.40437	50.08
3.42103	50.08
3.43770	50.08
3.45437	50.08
3.47103	50.07
3.48770	50.07
3.50437	50.07
3.52103	50.07
3.53770	50.06
3.55437	50.05
3.57103	50.05
3.58770	50.05
3.60437	50.05
3.62103	50.06
3.63770	50.07
3.65437	50.08
3.67103	50.08
3.68770	50.08
3.70437	50.07
3.72103	50.07
3.73770	50.06
3.75437	50.06
3.77103	50.06
3.78770	50.06
3.80437	50.06
3.82103	50.06
3.83770	50.07
3.85437	50.07
3.87103	50.08
3.88770	50.08
3.90437	50.09
3.92103	50.08
3.93770	50.08
3.95437	50.06
3.97103	50.06
3.98770	50.06

[Status Trace (Injection Unit Temperature)]
Interval(msec)	1000
# of Points	240
Start Time(min)	0.004
End Time(min)	3.988
Intensity Units	
Intensity Multiplier	1
R.Time (min)	Intensity
0.00437	99.98
0.02103	99.98
0.03770	99.98
0.05437	99.98
0.07103	99.98
0.08770	99.98
0.10437	99.98
0.12103	99.98
0.13770	99.98
0.15437	99.98
0.17103	99.98
0.18770	99.98
0.20437	99.98
0.22103	99.98
0.23770	99.98
0.25437	99.98
0.27103	99.98
0.28770	99.98
0.30437	99.98
0.32103	99.99
0.33770	99.98
0.35437	99.99
0.37103	99.99
0.38770	99.98
0.40437	99.98
0.42103	99.98
0.43770	99.99
0.45437	99.98
0.47103	99.99
0.48770	99.98
0.50437	99.99
0.52103	99.99
0.53770	99.98
0.55437	99.99
0.57103	99.99
0.58770	99.99
0.60437	99.99
0.62103	99.99
0.63770	99.99
0.65437	99.99
0.67103	99.99
0.68770	99.99
0.70437	99.99
0.72103	99.98
0.73770	99.98
0.75437	99.98
0.77103	99.99
0.78770	99.99
0.80437	99.99
0.82103	99.99
0.83770	99.98
0.85437	99.99
0.87103	99.98
0.88770	99.98
0.90437	99.99
0.92103	99.98
0.93770	99.98
0.95437	99.99
0.97103	99.99
0.98770	99.99
1.00437	99.99
1.02103	99.98
1.03770	99.99
1.05437	99.98
1.07103	99.99
1.08770	99.98
1.10437	99.98
1.12103	99.98
1.13770	99.99
1.15437	99.99
1.17103	99.99
1.18770	99.99
1.20437	99.99
1.22103	99.98
1.23770	99.99
1.25437	99.99
1.27103	99.99
1.28770	99.99
1.30437	99.99
1.32103	99.99
1.33770	99.99
1.35437	99.99
1.37103	99.99
1.38770	99.99
1.40437	99.99
1.42103	99.99
1.43770	99.99
1.45437	99.99
1.47103	99.98
1.48770	99.99
1.50437	99.99
1.52103	99.98
1.53770	99.99
1.55437	99.98
1.57103	99.99
1.58770	99.99
1.60437	99.98
1.62103	99.99
1.63770	99.99
1.65437	99.98
1.67103	99.98
1.68770	99.98
1.70437	99.98
1.72103	99.98
1.73770	99.99
1.75437	99.98
1.77103	99.98
1.78770	99.98
1.80437	99.98
1.82103	99.98
1.83770	99.98
1.85437	99.97
1.87103	99.98
1.88770	99.98
1.90437	99.98
1.92103	99.98
1.93770	99.98
1.95437	99.97
1.97103	99.98
1.98770	99.97
2.00437	99.98
2.02103	99.97
2.03770	99.98
2.05437	99.97
2.07103	99.97
2.08770	99.97
2.10437	99.97
2.12103	99.98
2.13770	99.97
2.15437	99.97
2.17103	99.97
2.18770	99.97
2.20437	99.97
2.22103	99.97
2.23770	99.97
2.25437	99.97
2.27103	99.97
2.28770	99.97
2.30437	99.97
2.32103	99.97
2.33770	99.97
2.35437	99.97
2.37103	99.98
2.38770	99.97
2.40437	99.97
2.42103	99.98
2.43770	99.97
2.45437	99.97
2.47103	99.97
2.48770	99.97
2.50437	99.97
2.52103	99.98
2.53770	99.97
2.55437	99.98
2.57103	99.98
2.58770	99.98
2.60437	99.98
2.62103	99.98
2.63770	99.98
2.65437	99.98
2.67103	99.98
2.68770	99.98
2.70437	99.98
2.72103	99.98
2.73770	99.99
2.75437	99.99
2.77103	99.99
2.78770	99.99
2.80437	99.99
2.82103	99.99
2.83770	99.99
2.85437	99.99
2.87103	100.00
2.88770	100.00
2.90437	100.00
2.92103	100.00
2.93770	100.00
2.95437	100.00
2.97103	100.01
2.98770	100.00
3.00437	100.00
3.02103	100.01
3.03770	100.01
3.05437	100.01
3.07103	100.01
3.08770	100.01
3.10437	100.01
3.12103	100.01
3.13770	100.01
3.15437	100.01
3.17103	100.02
3.18770	100.02
3.20437	100.02
3.22103	100.02
3.23770	100.02
3.25437	100.02
3.27103	100.02
3.28770	100.02
3.30437	100.02
3.32103	100.01
3.33770	100.02
3.35437	100.02
3.37103	100.02
3.38770	100.02
3.40437	100.02
3.42103	100.02
3.43770	100.03
3.45437	100.03
3.47103	100.03
3.48770	100.03
3.50437	100.03
3.52103	100.03
3.53770	100.03
3.55437	100.03
3.57103	100.03
3.58770	100.03
3.60437	100.04
3.62103	100.03
3.63770	100.03
3.65437	100.03
3.67103	100.04
3.68770	100.04
3.70437	100.04
3.72103	100.03
3.73770	100.03
3.75437	100.04
3.77103	100.03
3.78770	100.04
3.80437	100.04
3.82103	100.04
3.83770	100.04
3.85437	100.04
3.87103	100.04
3.88770	100.04
3.90437	100.04
3.92103	100.04
3.93770	100.05
3.95437	100.04
3.97103	100.04
3.98770	100.04

[Status Trace (Carrier Gas Pressure)]
Interval(msec)	1000
# of Points	240
Start Time(min)	0.004
End Time(min)	3.988
Intensity Units	
Intensity Multiplier	1
R.Time (min)	Intensity
0.00437	58.00
0.02103	56.00
0.03770	56.61
0.05437	58.87
0.07103	59.76
0.08770	58.18
0.10437	57.97
0.12103	58.01
0.13770	58.01
0.15437	58.01
0.17103	58.00
0.18770	58.00
0.20437	58.00
0.22103	58.00
0.23770	58.00
0.25437	58.00
0.27103	58.00
0.28770	58.00
0.30437	58.00
0.32103	58.00
0.33770	58.00
0.35437	58.00
0.37103	58.00
0.38770	58.00
0.40437	58.00
0.42103	58.00
0.43770	58.00
0.45437	58.00
0.47103	58.00
0.48770	58.00
0.50437	58.00
0.52103	58.00
0.53770	58.00
0.55437	58.00
0.57103	58.00
0.58770	58.00
0.60437	58.00
0.62103	58.00
0.63770	58.00
0.65437	58.00
0.67103	58.00
0.68770	58.00
0.70437	58.00
0.72103	58.00
0.73770	58.00
0.75437	58.00
0.77103	58.00
0.78770	58.00
0.80437	58.00
0.82103	58.00
0.83770	58.00
0.85437	58.00
0.87103	58.00
0.88770	58.00
0.90437	58.00
0.92103	58.00
0.93770	58.00
0.95437	58.00
0.97103	58.00
0.98770	58.00
1.00437	58.00
1.02103	58.00
1.03770	58.00
1.05437	58.00
1.07103	58.00
1.08770	58.00
1.10437	58.00
1.12103	58.00
1.13770	58.00
1.15437	58.00
1.17103	58.00
1.18770	58.00
1.20437	58.00
1.22103	58.00
1.23770	58.00
1.25437	58.00
1.27103	58.00
1.28770	58.00
1.30437	58.00
1.32103	58.00
1.33770	58.00
1.35437	58.00
1.37103	58.00
1.38770	58.00
1.40437	58.00
1.42103	58.00
1.43770	58.00
1.45437	58.00
1.47103	58.00
1.48770	58.00
1.50437	58.00
1.52103	58.00
1.53770	58.00
1.55437	58.00
1.57103	58.00
1.58770	58.00
1.60437	58.00
1.62103	58.00
1.63770	58.00
1.65437	58.00
1.67103	58.01
1.68770	58.01
1.70437	58.00
1.72103	58.00
1.73770	58.00
1.75437	58.00
1.77103	58.00
1.78770	58.00
1.80437	58.00
1.82103	58.00
1.83770	58.00
1.85437	58.00
1.87103	58.00
1.88770	58.00
1.90437	58.00
1.92103	58.00
1.93770	58.00
1.95437	58.00
1.97103	58.00
1.98770	58.00
2.00437	58.00
2.02103	58.00
2.03770	58.00
2.05437	58.00
2.07103	58.00
2.08770	58.00
2.10437	58.00
2.12103	58.00
2.13770	58.00
2.15437	58.00
2.17103	58.00
2.18770	58.00
2.20437	58.00
2.22103	58.00
2.23770	58.00
2.25437	58.00
2.27103	58.00
2.28770	58.00
2.30437	58.00
2.32103	58.00
2.33770	58.00
2.35437	58.00
2.37103	58.00
2.38770	57.99
2.40437	57.99
2.42103	58.00
2.43770	58.00
2.45437	58.00
2.47103	58.00
2.48770	58.00
2.50437	57.99
2.52103	57.99
2.53770	57.99
2.55437	58.00
2.57103	58.00
2.58770	58.00
2.60437	58.00
2.62103	58.00
2.63770	58.00
2.65437	58.00
2.67103	58.00
2.68770	58.00
2.70437	58.00
2.72103	58.00
2.73770	58.00
2.75437	58.00
2.77103	58.00
2.78770	58.00
2.80437	58.00
2.82103	58.00
2.83770	58.00
2.85437	58.00
2.87103	58.00
2.88770	58.00
2.90437	58.00
2.92103	58.00
2.93770	58.00
2.95437	58.00
2.97103	58.00
2.98770	58.00
3.00437	58.00
3.02103	58.00
3.03770	58.00
3.05437	58.00
3.07103	58.00
3.08770	58.00
3.10437	58.00
3.12103	58.00
3.13770	58.00
3.15437	58.00
3.17103	58.00
3.18770	58.00
3.20437	58.00
3.22103	58.00
3.23770	58.00
3.25437	58.00
3.27103	58.00
3.28770	58.00
3.30437	58.00
3.32103	58.00
3.33770	58.00
3.35437	58.00
3.37103	58.00
3.38770	58.00
3.40437	58.00
3.42103	58.00
3.43770	58.00
3.45437	58.00
3.47103	58.00
3.48770	58.00
3.50437	58.00
3.52103	58.00
3.53770	58.00
3.55437	58.00
3.57103	58.00
3.58770	58.00
3.60437	58.00
3.62103	58.00
3.63770	58.00
3.65437	58.00
3.67103	58.00
3.68770	58.00
3.70437	58.00
3.72103	58.00
3.73770	58.00
3.75437	58.00
3.77103	58.00
3.78770	58.00
3.80437	58.00
3.82103	58.00
3.83770	58.00
3.85437	58.00
3.87103	58.00
3.88770	58.00
3.90437	58.00
3.92103	58.00
3.93770	58.00
3.95437	58.00
3.97103	58.00
3.98770	58.00

[Status Trace (Carrier Gas Flow)]
Interval(msec)	1000
# of Points	240
Start Time(min)	0.004
End Time(min)	3.988
Intensity Units	
Intensity Multiplier	1
R.Time (min)	Intensity
0.00437	34.52
0.02103	34.57
0.03770	34.54
0.05437	34.55
0.07103	34.49
0.08770	34.52
0.10437	34.52
0.12103	34.52
0.13770	34.52
0.15437	34.52
0.17103	34.52
0.18770	34.52
0.20437	34.52
0.22103	34.52
0.23770	34.52
0.25437	34.52
0.27103	34.53
0.28770	34.52
0.30437	34.52
0.32103	34.52
0.33770	34.52
0.35437	34.52
0.37103	34.52
0.38770	34.52
0.40437	34.52
0.42103	34.52
0.43770	34.52
0.45437	34.52
0.47103	34.52
0.48770	34.52
0.50437	34.52
0.52103	34.52
0.53770	34.52
0.55437	34.52
0.57103	34.51
0.58770	34.52
0.60437	34.52
0.62103	34.52
0.63770	34.52
0.65437	34.52
0.67103	34.52
0.68770	34.52
0.70437	34.52
0.72103	34.52
0.73770	34.52
0.75437	34.52
0.77103	34.52
0.78770	34.52
0.80437	34.52
0.82103	34.52
0.83770	34.52
0.85437	34.52
0.87103	34.52
0.88770	34.52
0.90437	34.52
0.92103	34.52
0.93770	34.52
0.95437	34.52
0.97103	34.52
0.98770	34.52
1.00437	34.52
1.02103	34.52
1.03770	34.53
1.05437	34.52
1.07103	34.52
1.08770	34.52
1.10437	34.52
1.12103	34.52
1.13770	34.52
1.15437	34.52
1.17103	34.53
1.18770	34.52
1.20437	34.52
1.22103	34.52
1.23770	34.52
1.25437	34.52
1.27103	34.51
1.28770	34.52
1.30437	34.52
1.32103	34.52
1.33770	34.52
1.35437	34.52
1.37103	34.52
1.38770	34.52
1.40437	34.52
1.42103	34.52
1.43770	34.52
1.45437	34.52
1.47103	34.52
1.48770	34.52
1.50437	34.52
1.52103	34.52
1.53770	34.52
1.55437	34.52
1.57103	34.52
1.58770	34.52
1.60437	34.52
1.62103	34.52
1.63770	34.52
1.65437	34.52
1.67103	34.52
1.68770	34.52
1.70437	34.52
1.72103	34.52
1.73770	34.52
1.75437	34.52
1.77103	34.52
1.78770	34.52
1.80437	34.52
1.82103	34.53
1.83770	34.52
1.85437	34.52
1.87103	34.51
1.88770	34.52
1.90437	34.52
1.92103	34.52
1.93770	34.51
1.95437	34.52
1.97103	34.52
1.98770	34.52
2.00437	34.52
2.02103	34.52
2.03770	34.51
2.05437	34.52
2.07103	34.52
2.08770	34.52
2.10437	34.52
2.12103	34.52
2.13770	34.52
2.15437	34.52
2.17103	34.51
2.18770	34.52
2.20437	34.52
2.22103	34.53
2.23770	34.52
2.25437	34.52
2.27103	34.53
2.28770	34.51
2.30437	34.52
2.32103	34.52
2.33770	34.52
2.35437	34.52
2.37103	34.51
2.38770	34.52
2.40437	34.52
2.42103	34.53
2.43770	34.51
2.45437	34.52
2.47103	34.52
2.48770	34.52
2.50437	34.55
2.52103	34.52
2.53770	34.52
2.55437	34.52
2.57103	34.52
2.58770	34.52
2.60437	34.52
2.62103	34.52
2.63770	34.52
2.65437	34.52
2.67103	34.53
2.68770	34.52
2.70437	34.52
2.72103	34.52
2.73770	34.52
2.75437	34.52
2.77103	34.53
2.78770	34.52
2.80437	34.52
2.82103	34.52
2.83770	34.51
2.85437	34.52
2.87103	34.52
2.88770	34.52
2.90437	34.52
2.92103	34.52
2.93770	34.52
2.95437	34.52
2.97103	34.52
2.98770	34.52
3.00437	34.52
3.02103	34.52
3.03770	34.52
3.05437	34.52
3.07103	34.52
3.08770	34.51
3.10437	34.51
3.12103	34.52
3.13770	34.52
3.15437	34.51
3.17103	34.52
3.18770	34.52
3.20437	34.52
3.22103	34.51
3.23770	34.52
3.25437	34.52
3.27103	34.52
3.28770	34.52
3.30437	34.52
3.32103	34.52
3.33770	34.53
3.35437	34.52
3.37103	34.52
3.38770	34.52
3.40437	34.52
3.42103	34.52
3.43770	34.52
3.45437	34.52
3.47103	34.52
3.48770	34.52
3.50437	34.52
3.52103	34.52
3.53770	34.52
3.55437	34.52
3.57103	34.52
3.58770	34.52
3.60437	34.52
3.62103	34.52
3.63770	34.53
3.65437	34.52
3.67103	34.52
3.68770	34.51
3.70437	34.52
3.72103	34.52
3.73770	34.51
3.75437	34.52
3.77103	34.52
3.78770	34.52
3.80437	34.52
3.82103	34.51
3.83770	34.52
3.85437	34.52
3.87103	34.52
3.88770	34.52
3.90437	34.52
3.92103	34.52
3.93770	34.52
3.95437	34.52
3.97103	34.52
3.98770	34.52

[Status Trace (Column Flow)]
Interval(msec)	1000
# of Points	240
Start Time(min)	0.004
End Time(min)	3.988
Intensity Units	
Intensity Multiplier	1
R.Time (min)	Intensity
0.00437	5.54
0.02103	5.30
0.03770	5.37
0.05437	5.64
0.07103	5.74
0.08770	5.56
0.10437	5.53
0.12103	5.54
0.13770	5.54
0.15437	5.54
0.17103	5.54
0.18770	5.54
0.20437	5.54
0.22103	5.54
0.23770	5.54
0.25437	5.54
0.27103	5.54
0.28770	5.54
0.30437	5.54
0.32103	5.54
0.33770	5.54
0.35437	5.54
0.37103	5.54
0.38770	5.54
0.40437	5.54
0.42103	5.54
0.43770	5.54
0.45437	5.54
0.47103	5.54
0.48770	5.54
0.50437	5.54
0.52103	5.54
0.53770	5.54
0.55437	5.54
0.57103	5.54
0.58770	5.54
0.60437	5.54
0.62103	5.54
0.63770	5.54
0.65437	5.54
0.67103	5.54
0.68770	5.54
0.70437	5.54
0.72103	5.54
0.73770	5.54
0.75437	5.54
0.77103	5.54
0.78770	5.54
0.80437	5.54
0.82103	5.54
0.83770	5.54
0.85437	5.54
0.87103	5.54
0.88770	5.54
0.90437	5.54
0.92103	5.54
0.93770	5.54
0.95437	5.54
0.97103	5.54
0.98770	5.54
1.00437	5.54
1.02103	5.54
1.03770	5.54
1.05437	5.54
1.07103	5.54
1.08770	5.54
1.10437	5.54
1.12103	5.54
1.13770	5.54
1.15437	5.54
1.17103	5.54
1.18770	5.54
1.20437	5.54
1.22103	5.54
1.23770	5.54
1.25437	5.54
1.27103	5.54
1.28770	5.54
1.30437	5.54
1.32103	5.54
1.33770	5.54
1.35437	5.54
1.37103	5.54
1.38770	5.54
1.40437	5.54
1.42103	5.54
1.43770	5.54
1.45437	5.54
1.47103	5.54
1.48770	5.54
1.50437	5.54
1.52103	5.54
1.53770	5.54
1.55437	5.54
1.57103	5.54
1.58770	5.54
1.60437	5.54
1.62103	5.53
1.63770	5.53
1.65437	5.52
1.67103	5.51
1.68770	5.50
1.70437	5.49
1.72103	5.48
1.73770	5.47
1.75437	5.46
1.77103	5.45
1.78770	5.44
1.80437	5.43
1.82103	5.42
1.83770	5.41
1.85437	5.40
1.87103	5.39
1.88770	5.38
1.90437	5.37
1.92103	5.36
1.93770	5.35
1.95437	5.34
1.97103	5.33
1.98770	5.32
2.00437	5.31
2.02103	5.30
2.03770	5.29
2.05437	5.28
2.07103	5.27
2.08770	5.26
2.10437	5.25
2.12103	5.24
2.13770	5.23
2.15437	5.22
2.17103	5.21
2.18770	5.20
2.20437	5.19
2.22103	5.18
2.23770	5.17
2.25437	5.17
2.27103	5.16
2.28770	5.15
2.30437	5.14
2.32103	5.13
2.33770	5.12
2.35437	5.11
2.37103	5.10
2.38770	5.10
2.40437	5.10
2.42103	5.10
2.43770	5.10
2.45437	5.10
2.47103	5.10
2.48770	5.10
2.50437	5.10
2.52103	5.10
2.53770	5.10
2.55437	5.10
2.57103	5.10
2.58770	5.10
2.60437	5.10
2.62103	5.10
2.63770	5.10
2.65437	5.10
2.67103	5.10
2.68770	5.10
2.70437	5.10
2.72103	5.10
2.73770	5.10
2.75437	5.10
2.77103	5.10
2.78770	5.10
2.80437	5.10
2.82103	5.10
2.83770	5.10
2.85437	5.10
2.87103	5.10
2.88770	5.10
2.90437	5.10
2.92103	5.10
2.93770	5.09
2.95437	5.09
2.97103	5.09
2.98770	5.09
3.00437	5.09
3.02103	5.09
3.03770	5.09
3.05437	5.09
3.07103	5.09
3.08770	5.09
3.10437	5.09
3.12103	5.09
3.13770	5.09
3.15437	5.09
3.17103	5.09
3.18770	5.09
3.20437	5.09
3.22103	5.09
3.23770	5.09
3.25437	5.09
3.27103	5.09
3.28770	5.09
3.30437	5.09
3.32103	5.09
3.33770	5.09
3.35437	5.09
3.37103	5.09
3.38770	5.09
3.40437	5.09
3.42103	5.09
3.43770	5.09
3.45437	5.09
3.47103	5.09
3.48770	5.09
3.50437	5.09
3.52103	5.09
3.53770	5.09
3.55437	5.09
3.57103	5.09
3.58770	5.09
3.60437	5.09
3.62103	5.09
3.63770	5.09
3.65437	5.09
3.67103	5.09
3.68770	5.09
3.70437	5.09
3.72103	5.09
3.73770	5.09
3.75437	5.09
3.77103	5.09
3.78770	5.09
3.80437	5.09
3.82103	5.09
3.83770	5.09
3.85437	5.09
3.87103	5.09
3.88770	5.09
3.90437	5.09
3.92103	5.09
3.93770	5.09
3.95437	5.09
3.97103	5.09
3.98770	5.09

[Status Trace (Linear Velocity)]
Interval(msec)	1000
# of Points	240
Start Time(min)	0.004
End Time(min)	3.988
Intensity Units	
Intensity Multiplier	1
R.Time (min)	Intensity
0.00437	39.02
0.02103	37.70
0.03770	38.11
0.05437	39.59
0.07103	40.17
0.08770	39.13
0.10437	39.00
0.12103	39.02
0.13770	39.02
0.15437	39.02
0.17103	39.02
0.18770	39.02
0.20437	39.02
0.22103	39.02
0.23770	39.02
0.25437	39.02
0.27103	39.02
0.28770	39.02
0.30437	39.02
0.32103	39.02
0.33770	39.02
0.35437	39.02
0.37103	39.02
0.38770	39.02
0.40437	39.02
0.42103	39.02
0.43770	39.02
0.45437	39.02
0.47103	39.02
0.48770	39.02
0.50437	39.02
0.52103	39.02
0.53770	39.02
0.55437	39.02
0.57103	39.02
0.58770	39.02
0.60437	39.02
0.62103	39.02
0.63770	39.02
0.65437	39.02
0.67103	39.02
0.68770	39.02
0.70437	39.02
0.72103	39.02
0.73770	39.02
0.75437	39.02
0.77103	39.02
0.78770	39.02
0.80437	39.02
0.82103	39.02
0.83770	39.02
0.85437	39.02
0.87103	39.02
0.88770	39.02
0.90437	39.02
0.92103	39.02
0.93770	39.02
0.95437	39.02
0.97103	39.02
0.98770	39.02
1.00437	39.02
1.02103	39.02
1.03770	39.02
1.05437	39.02
1.07103	39.02
1.08770	39.02
1.10437	39.02
1.12103	39.02
1.13770	39.02
1.15437	39.02
1.17103	39.02
1.18770	39.02
1.20437	39.02
1.22103	39.02
1.23770	39.02
1.25437	39.02
1.27103	39.02
1.28770	39.02
1.30437	39.02
1.32103	39.02
1.33770	39.02
1.35437	39.02
1.37103	39.02
1.38770	39.02
1.40437	39.02
1.42103	39.02
1.43770	39.02
1.45437	39.02
1.47103	39.02
1.48770	39.02
1.50437	39.02
1.52103	39.02
1.53770	39.02
1.55437	39.02
1.57103	39.02
1.58770	39.02
1.60437	39.02
1.62103	39.01
1.63770	38.99
1.65437	38.97
1.67103	38.94
1.68770	38.90
1.70437	38.87
1.72103	38.83
1.73770	38.80
1.75437	38.77
1.77103	38.74
1.78770	38.71
1.80437	38.68
1.82103	38.65
1.83770	38.61
1.85437	38.59
1.87103	38.55
1.88770	38.52
1.90437	38.49
1.92103	38.46
1.93770	38.43
1.95437	38.40
1.97103	38.37
1.98770	38.34
2.00437	38.31
2.02103	38.28
2.03770	38.25
2.05437	38.22
2.07103	38.19
2.08770	38.16
2.10437	38.13
2.12103	38.10
2.13770	38.07
2.15437	38.04
2.17103	38.01
2.18770	37.98
2.20437	37.95
2.22103	37.92
2.23770	37.89
2.25437	37.86
2.27103	37.83
2.28770	37.81
2.30437	37.78
2.32103	37.75
2.33770	37.72
2.35437	37.69
2.37103	37.67
2.38770	37.66
2.40437	37.66
2.42103	37.66
2.43770	37.67
2.45437	37.66
2.47103	37.66
2.48770	37.66
2.50437	37.65
2.52103	37.66
2.53770	37.66
2.55437	37.66
2.57103	37.66
2.58770	37.66
2.60437	37.65
2.62103	37.65
2.63770	37.65
2.65437	37.65
2.67103	37.65
2.68770	37.65
2.70437	37.65
2.72103	37.65
2.73770	37.65
2.75437	37.65
2.77103	37.65
2.78770	37.65
2.80437	37.65
2.82103	37.65
2.83770	37.65
2.85437	37.65
2.87103	37.65
2.88770	37.64
2.90437	37.64
2.92103	37.64
2.93770	37.64
2.95437	37.64
2.97103	37.64
2.98770	37.64
3.00437	37.64
3.02103	37.64
3.03770	37.64
3.05437	37.64
3.07103	37.64
3.08770	37.64
3.10437	37.64
3.12103	37.64
3.13770	37.63
3.15437	37.63
3.17103	37.63
3.18770	37.63
3.20437	37.63
3.22103	37.63
3.23770	37.63
3.25437	37.63
3.27103	37.63
3.28770	37.63
3.30437	37.63
3.32103	37.63
3.33770	37.63
3.35437	37.63
3.37103	37.63
3.38770	37.63
3.40437	37.63
3.42103	37.63
3.43770	37.63
3.45437	37.63
3.47103	37.63
3.48770	37.63
3.50437	37.63
3.52103	37.63
3.53770	37.63
3.55437	37.63
3.57103	37.63
3.58770	37.63
3.60437	37.63
3.62103	37.63
3.63770	37.63
3.65437	37.63
3.67103	37.63
3.68770	37.63
3.70437	37.63
3.72103	37.63
3.73770	37.63
3.75437	37.63
3.77103	37.63
3.78770	37.63
3.80437	37.63
3.82103	37.63
3.83770	37.63
3.85437	37.63
3.87103	37.63
3.88770	37.63
3.90437	37.63
3.92103	37.63
3.93770	37.63
3.95437	37.63
3.97103	37.63
3.98770	37.63

