[Header]
Application Name	LabSolutions
Version	5.110
Data File Name	C:\Users\User\Desktop\GC Analyses\Jack\Nachusa Grasslands Sampling\T3 Timepoint July 12th\T3_07122022_001.gcd
Output Date	3/14/2023
Output Time	3:43:29 PM

[File Information]
Type	Data File
Generated	3/13/2023 2:31:48 PM
Generated by	System Administrator
Modified	3/13/2023 2:35:54 PM
Modified by	System Administrator

[Sample Information]
Operator Name	System Administrator
Acquired	3/13/2023 2:31:53 PM
Sample Type	0:Unknown
Level	0
Sample Name	001
Sample ID	001
ISTD Amount1	1
ISTD Amount2	1
ISTD Amount3	1
ISTD Amount4	1
ISTD Amount5	1
ISTD Amount6	1
ISTD Amount7	1
ISTD Amount8	1
ISTD Amount9	1
ISTD Amount10	1
ISTD Amount11	1
ISTD Amount12	1
ISTD Amount13	1
ISTD Amount14	1
ISTD Amount15	1
ISTD Amount16	1
ISTD Amount17	1
ISTD Amount18	1
ISTD Amount19	1
ISTD Amount20	1
ISTD Amount21	1
ISTD Amount22	1
ISTD Amount23	1
ISTD Amount24	1
ISTD Amount25	1
ISTD Amount26	1
ISTD Amount27	1
ISTD Amount28	1
ISTD Amount29	1
ISTD Amount30	1
ISTD Amount31	1
ISTD Amount32	1
Sample Amount	1
Dilution Factor	1
Vial#	0
Injection Volume	1
Injection Count	1
Bar Code	

[Original Files]
Data File	C:\Users\User\Desktop\GC Analyses\Jack\Nachusa Grasslands Sampling\T3 Timepoint July 12th\T3_07122022_001.gcd
Method File	C:\LabSolutions\Data\GHG_4min_2022\ghg3_togas_w_acet_4 min_new_int.gcm
Batch File	C:\LabSolutions\Data\AutoSamplerTesting\T3_07122022.gcb
Report Format File	c:\LabSolutions\System\DEFAULT.lsr

[File Description]


[Configuration]
Instrument Name	C0B7VH3-Instrument1
Instrument #	1
Line #	1
# of Detectors	3
Detector ID	DET#1	DET#2	DET#3
Detector Name	FID	PTCD	ECD
# of Channels	1	1	1

[Peak Table(Ch1)]
# of Peaks	3
Peak#	R.Time	I.Time	F.Time	Area	Height	A/H	Conc.	Mark	ID#	Name	k'	Plate #	Plate Ht.	Tailing	Resolution	Sep.Factor	Area Ratio	Height Ratio	Conc. %	Norm Conc.
1	1.454	1.344	1.509	6267	2502	2.505	44.242	   	1	CO	0.000	9465	15.847	0.744	0.000	0.000	0	0	3.831	3.831
2	1.567	1.527	1.626	24211	10545	2.296	468.134	   	2	CH4	0.078	9101	16.482	1.085	1.812	0.000	0	0	40.538	40.538
3	1.996	1.945	2.378	2559716	1101681	2.323	642.419	   	3	CO2	0.373	14594	10.278	1.129	6.509	4.774	0	0	55.631	55.631

[Peak Table(Ch2)]
# of Peaks	0

[Peak Table(Ch3)]
# of Peaks	5
Peak#	R.Time	I.Time	F.Time	Area	Height	A/H	Conc.	Mark	ID#	Name	k'	Plate #	Plate Ht.	Tailing	Resolution	Sep.Factor	Area Ratio	Height Ratio	Conc. %	Norm Conc.
1	2.462	2.429	2.502	987	362	2.725	0.000	   			0.000	11872	12.635	0.000	0.000	0.000	0	0	0.000	0.000
2	2.521	2.502	2.561	670	255	2.628	0.000	 V 			0.024	6716	22.335	0.000	0.550	0.000	0	0	0.000	0.000
3	2.601	2.561	2.653	569	157	3.634	0.000	 V 			0.057	5871	25.549	0.000	0.623	2.375	0	0	0.000	0.000
4	2.876	2.675	3.129	65338	16180	4.038	1.669	   	1	N2O	0.168	12029	12.469	1.542	2.285	2.974	0	0	100.000	100.000
5	3.302	3.129	3.654	2132	103	20.627	0.000	 V 	2	SF6	0.341	305	491.203	0.000	0.988	2.027	0	0	0.000	0.000

[Compound Results(Ch1)]
# of IDs	6
ID#	Name	R.Time	Area	Height	Conc.	Curve	3rd	2nd	1st	Constant	Area Ratio	Height Ratio	Conc. %	Norm Conc.
1	CO	1.454	6267	2502	44.242	Linear	0.000000e+00	0.000000e+00	1.416423e+002	0.000000e+00	0	0	3.831	3.831
2	CH4	1.567	24211	10545	468.134	Linear	0.000000e+00	0.000000e+00	5.171738e+001	0.000000e+00	0	0	40.538	40.538
3	CO2	1.996	2559716	1101681	642.419	Linear	0.000000e+00	0.000000e+00	3.984494e+003	0.000000e+00	0	0	55.631	55.631
4	Ethylene	0.000	0	0	0.000	Linear	0.000000e+00	0.000000e+00	0.000000e+00	0.000000e+00	0	0	0.000	0.000
5	Acetylene	0.000	0	0	0.000	Linear	0.000000e+00	0.000000e+00	0.000000e+00	0.000000e+00	0	0	0.000	0.000
6	Ethane	0.000	0	0	0.000	Linear	0.000000e+00	0.000000e+00	0.000000e+00	0.000000e+00	0	0	0.000	0.000

[Compound Results(Ch2)]
# of IDs	5
ID#	Name	R.Time	Area	Height	Conc.	Curve	3rd	2nd	1st	Constant	Area Ratio	Height Ratio	Conc. %	Norm Conc.
1	Hydrogen	0.000	0	0	0.000	Linear	0.000000e+00	0.000000e+00	0.000000e+00	0.000000e+00	0	0	0.000	0.000
2	Oxygen	0.000	0	0	0.000	Linear	0.000000e+00	0.000000e+00	0.000000e+00	0.000000e+00	0	0	0.000	0.000
3	Nitrogen	0.000	0	0	0.000	Linear	0.000000e+00	0.000000e+00	0.000000e+00	0.000000e+00	0	0	0.000	0.000
4	Methane	0.000	0	0	0.000	Linear	0.000000e+00	0.000000e+00	0.000000e+00	0.000000e+00	0	0	0.000	0.000
5	Carbon Monoxide	0.000	0	0	0.000	Linear	0.000000e+00	0.000000e+00	0.000000e+00	0.000000e+00	0	0	0.000	0.000

[Compound Results(Ch3)]
# of IDs	2
ID#	Name	R.Time	Area	Height	Conc.	Curve	3rd	2nd	1st	Constant	Area Ratio	Height Ratio	Conc. %	Norm Conc.
1	N2O	2.876	65338	16180	1.669	Linear	0.000000e+00	0.000000e+00	3.915173e+004	0.000000e+00	0	0	100.000	100.000
2	SF6	3.302	2132	103	0.000	Linear	0.000000e+00	0.000000e+00	0.000000e+00	0.000000e+00	0	0	0.000	0.000

[Group Results(Ch1)]
# of Groups	0

[Group Results(Ch2)]
# of Groups	0

[Group Results(Ch3)]
# of Groups	0

[Chromatogram (Ch1)]
Interval(msec)	220
# of Points	1091
Start Time(min)	0.002
End Time(min)	3.998
R.Time (min)	Intensity
0.00167	-7
0.00533	-11
0.00900	-14
0.01267	-19
0.01633	-26
0.02000	-34
0.02367	-42
0.02733	-50
0.03100	-61
0.03467	-68
0.03833	-73
0.04200	-78
0.04567	-83
0.04933	-85
0.05300	-92
0.05667	-101
0.06033	-111
0.06400	-116
0.06767	-116
0.07133	-117
0.07500	-116
0.07867	-118
0.08233	-118
0.08600	-116
0.08967	-118
0.09333	-126
0.09700	-139
0.10067	-144
0.10433	-148
0.10800	-158
0.11167	-172
0.11533	-185
0.11900	-199
0.12267	-212
0.12633	-214
0.13000	-214
0.13367	-213
0.13733	-213
0.14100	-216
0.14467	-219
0.14833	-220
0.15200	-221
0.15567	-226
0.15933	-233
0.16300	-239
0.16667	-241
0.17033	-243
0.17400	-246
0.17767	-252
0.18133	-265
0.18500	-269
0.18867	-270
0.19233	-264
0.19600	-260
0.19967	-262
0.20333	-267
0.20700	-277
0.21067	-286
0.21433	-294
0.21800	-303
0.22167	-313
0.22533	-320
0.22900	-326
0.23267	-330
0.23633	-334
0.24000	-336
0.24367	-342
0.24733	-350
0.25100	-353
0.25467	-350
0.25833	-344
0.26200	-338
0.26567	-338
0.26933	-338
0.27300	-338
0.27667	-344
0.28033	-360
0.28400	-379
0.28767	-397
0.29133	-412
0.29500	-425
0.29867	-433
0.30233	-435
0.30600	-438
0.30967	-442
0.31333	-448
0.31700	-450
0.32067	-445
0.32433	-440
0.32800	-438
0.33167	-439
0.33533	-442
0.33900	-448
0.34267	-449
0.34633	-451
0.35000	-454
0.35367	-460
0.35733	-468
0.36100	-479
0.36467	-491
0.36833	-502
0.37200	-506
0.37567	-510
0.37933	-515
0.38300	-520
0.38667	-524
0.39033	-530
0.39400	-534
0.39767	-538
0.40133	-539
0.40500	-539
0.40867	-538
0.41233	-542
0.41600	-547
0.41967	-550
0.42333	-545
0.42700	-530
0.43067	-518
0.43433	-520
0.43800	-537
0.44167	-557
0.44533	-574
0.44900	-582
0.45267	-579
0.45633	-579
0.46000	-585
0.46367	-594
0.46733	-604
0.47100	-617
0.47467	-631
0.47833	-641
0.48200	-649
0.48567	-655
0.48933	-659
0.49300	-660
0.49667	-659
0.50033	-656
0.50400	-656
0.50767	-660
0.51133	-664
0.51500	-666
0.51867	-668
0.52233	-667
0.52600	-665
0.52967	-670
0.53333	-677
0.53700	-682
0.54067	-685
0.54433	-685
0.54800	-684
0.55167	-685
0.55533	-685
0.55900	-684
0.56267	-689
0.56633	-699
0.57000	-709
0.57367	-719
0.57733	-728
0.58100	-730
0.58467	-727
0.58833	-728
0.59200	-733
0.59567	-739
0.59933	-745
0.60300	-746
0.60667	-749
0.61033	-759
0.61400	-767
0.61767	-773
0.62133	-776
0.62500	-773
0.62867	-773
0.63233	-772
0.63600	-768
0.63967	-768
0.64333	-773
0.64700	-784
0.65067	-795
0.65433	-802
0.65800	-808
0.66167	-810
0.66533	-805
0.66900	-803
0.67267	-807
0.67633	-814
0.68000	-820
0.68367	-829
0.68733	-839
0.69100	-844
0.69467	-848
0.69833	-851
0.70200	-850
0.70567	-845
0.70933	-841
0.71300	-845
0.71667	-851
0.72033	-860
0.72400	-873
0.72767	-884
0.73133	-889
0.73500	-889
0.73867	-889
0.74233	-892
0.74600	-898
0.74967	-900
0.75333	-903
0.75700	-905
0.76067	-909
0.76433	-916
0.76800	-919
0.77167	-921
0.77533	-924
0.77900	-923
0.78267	-921
0.78633	-924
0.79000	-925
0.79367	-924
0.79733	-924
0.80100	-927
0.80467	-931
0.80833	-933
0.81200	-935
0.81567	-932
0.81933	-926
0.82300	-929
0.82667	-932
0.83033	-934
0.83400	-938
0.83767	-947
0.84133	-957
0.84500	-960
0.84867	-962
0.85233	-970
0.85600	-979
0.85967	-983
0.86333	-982
0.86700	-983
0.87067	-985
0.87433	-990
0.87800	-1000
0.88167	-1007
0.88533	-1008
0.88900	-1006
0.89267	-1002
0.89633	-997
0.90000	-993
0.90367	-992
0.90733	-996
0.91100	-1002
0.91467	-1003
0.91833	-1004
0.92200	-1008
0.92567	-1014
0.92933	-1022
0.93300	-1033
0.93667	-1036
0.94033	-1038
0.94400	-1033
0.94767	-1031
0.95133	-1031
0.95500	-1032
0.95867	-1039
0.96233	-1045
0.96600	-1046
0.96967	-1048
0.97333	-1047
0.97700	-1044
0.98067	-1051
0.98433	-1056
0.98800	-1065
0.99167	-1073
0.99533	-1082
0.99900	-1085
1.00267	-1083
1.00633	-1082
1.01000	-1084
1.01367	-1087
1.01733	-1091
1.02100	-1088
1.02467	-1081
1.02833	-1076
1.03200	-1076
1.03567	-1078
1.03933	-1080
1.04300	-1082
1.04667	-1084
1.05033	-1089
1.05400	-1095
1.05767	-1102
1.06133	-1112
1.06500	-1123
1.06867	-1130
1.07233	-1133
1.07600	-1133
1.07967	-1131
1.08333	-1130
1.08700	-1131
1.09067	-1130
1.09433	-1130
1.09800	-1133
1.10167	-1134
1.10533	-1132
1.10900	-1132
1.11267	-1134
1.11633	-1138
1.12000	-1144
1.12367	-1147
1.12733	-1146
1.13100	-1144
1.13467	-1145
1.13833	-1147
1.14200	-1154
1.14567	-1159
1.14933	-1159
1.15300	-1155
1.15667	-1155
1.16033	-1157
1.16400	-1156
1.16767	-1153
1.17133	-1152
1.17500	-1152
1.17867	-1153
1.18233	-1159
1.18600	-1169
1.18967	-1176
1.19333	-1183
1.19700	-1188
1.20067	-1194
1.20433	-1196
1.20800	-1199
1.21167	-1198
1.21533	-1195
1.21900	-1194
1.22267	-1189
1.22633	-1182
1.23000	-1179
1.23367	-1184
1.23733	-1193
1.24100	-1199
1.24467	-1206
1.24833	-1211
1.25200	-1214
1.25567	-1212
1.25933	-1211
1.26300	-1210
1.26667	-1209
1.27033	-1211
1.27400	-1213
1.27767	-1217
1.28133	-1219
1.28500	-1218
1.28867	-1210
1.29233	-1206
1.29600	-1206
1.29967	-1208
1.30333	-1216
1.30700	-1225
1.31067	-1229
1.31433	-1228
1.31800	-1226
1.32167	-1225
1.32533	-1227
1.32900	-1230
1.33267	-1231
1.33633	-1226
1.34000	-1221
1.34367	-1219
1.34733	-1218
1.35100	-1219
1.35467	-1224
1.35833	-1232
1.36200	-1237
1.36567	-1240
1.36933	-1245
1.37300	-1250
1.37667	-1257
1.38033	-1260
1.38400	-1256
1.38767	-1252
1.39133	-1251
1.39500	-1251
1.39867	-1252
1.40233	-1256
1.40600	-1253
1.40967	-1250
1.41333	-1257
1.41700	-1267
1.42067	-1272
1.42433	-1271
1.42800	-1270
1.43167	-1261
1.43533	-1200
1.43900	-887
1.44267	-260
1.44633	297
1.45000	564
1.45367	550
1.45733	335
1.46100	16
1.46467	-347
1.46833	-705
1.47200	-1013
1.47567	-1250
1.47933	-1442
1.48300	-1621
1.48667	-1780
1.49033	-1920
1.49400	-2040
1.49767	-2140
1.50133	-2220
1.50500	-2279
1.50867	-2318
1.51233	-2342
1.51600	-2354
1.51967	-2356
1.52333	-2349
1.52700	-2325
1.53067	-2225
1.53433	-1874
1.53800	-1024
1.54167	421
1.54533	2244
1.54900	4075
1.55267	5645
1.55633	6849
1.56000	7704
1.56367	8242
1.56733	8417
1.57100	8096
1.57467	7168
1.57833	5728
1.58200	4065
1.58567	2483
1.58933	1171
1.59300	180
1.59667	-526
1.60033	-1012
1.60400	-1338
1.60767	-1546
1.61133	-1675
1.61500	-1755
1.61867	-1803
1.62233	-1830
1.62600	-1842
1.62967	-1847
1.63333	-1850
1.63700	-1851
1.64067	-1853
1.64433	-1858
1.64800	-1863
1.65167	-1862
1.65533	-1865
1.65900	-1868
1.66267	-1864
1.66633	-1859
1.67000	-1849
1.67367	-1834
1.67733	-1821
1.68100	-1813
1.68467	-1811
1.68833	-1810
1.69200	-1813
1.69567	-1814
1.69933	-1809
1.70300	-1799
1.70667	-1792
1.71033	-1791
1.71400	-1789
1.71767	-1789
1.72133	-1787
1.72500	-1781
1.72867	-1778
1.73233	-1776
1.73600	-1779
1.73967	-1781
1.74333	-1776
1.74700	-1772
1.75067	-1773
1.75433	-1771
1.75800	-1761
1.76167	-1750
1.76533	-1740
1.76900	-1735
1.77267	-1734
1.77633	-1739
1.78000	-1740
1.78367	-1739
1.78733	-1740
1.79100	-1744
1.79467	-1744
1.79833	-1741
1.80200	-1742
1.80567	-1740
1.80933	-1736
1.81300	-1735
1.81667	-1735
1.82033	-1736
1.82400	-1735
1.82767	-1731
1.83133	-1726
1.83500	-1724
1.83867	-1730
1.84233	-1733
1.84600	-1731
1.84967	-1729
1.85333	-1725
1.85700	-1725
1.86067	-1726
1.86433	-1723
1.86800	-1724
1.87167	-1728
1.87533	-1728
1.87900	-1728
1.88267	-1728
1.88633	-1731
1.89000	-1728
1.89367	-1725
1.89733	-1724
1.90100	-1727
1.90467	-1731
1.90833	-1731
1.91200	-1727
1.91567	-1724
1.91933	-1724
1.92300	-1727
1.92667	-1722
1.93033	-1711
1.93400	-1705
1.93767	-1708
1.94133	-1712
1.94500	-1706
1.94867	-1606
1.95233	-958
1.95600	2173
1.95967	13694
1.96333	46206
1.96700	117267
1.97067	238785
1.97433	404818
1.97800	591565
1.98167	770367
1.98533	919962
1.98900	1028825
1.99267	1090653
1.99633	1100015
2.00000	1053501
2.00367	954678
2.00733	816686
2.01100	660096
2.01467	506542
2.01833	372008
2.02200	263976
2.02567	182744
2.02933	124542
2.03300	84231
2.03667	56944
2.04033	38722
2.04400	26618
2.04767	18571
2.05133	13190
2.05500	9552
2.05867	7052
2.06233	5299
2.06600	4043
2.06967	3116
2.07333	2416
2.07700	1877
2.08067	1455
2.08433	1123
2.08800	854
2.09167	634
2.09533	450
2.09900	286
2.10267	144
2.10633	22
2.11000	-84
2.11367	-176
2.11733	-257
2.12100	-333
2.12467	-410
2.12833	-481
2.13200	-547
2.13567	-606
2.13933	-652
2.14300	-686
2.14667	-720
2.15033	-756
2.15400	-790
2.15767	-822
2.16133	-856
2.16500	-880
2.16867	-894
2.17233	-910
2.17600	-928
2.17967	-951
2.18333	-977
2.18700	-1002
2.19067	-1023
2.19433	-1045
2.19800	-1066
2.20167	-1082
2.20533	-1096
2.20900	-1107
2.21267	-1116
2.21633	-1126
2.22000	-1137
2.22367	-1151
2.22733	-1165
2.23100	-1171
2.23467	-1174
2.23833	-1179
2.24200	-1187
2.24567	-1197
2.24933	-1207
2.25300	-1217
2.25667	-1223
2.26033	-1224
2.26400	-1231
2.26767	-1236
2.27133	-1239
2.27500	-1250
2.27867	-1263
2.28233	-1263
2.28600	-1259
2.28967	-1263
2.29333	-1274
2.29700	-1286
2.30067	-1294
2.30433	-1299
2.30800	-1304
2.31167	-1311
2.31533	-1316
2.31900	-1320
2.32267	-1323
2.32633	-1325
2.33000	-1325
2.33367	-1321
2.33733	-1317
2.34100	-1314
2.34467	-1314
2.34833	-1317
2.35200	-1324
2.35567	-1336
2.35933	-1350
2.36300	-1364
2.36667	-1373
2.37033	-1375
2.37400	-1372
2.37767	-1371
2.38133	-1368
2.38500	-1365
2.38867	-1362
2.39233	-1363
2.39600	-1364
2.39967	-1363
2.40333	-1363
2.40700	-1363
2.41067	-1364
2.41433	-1364
2.41800	-1369
2.42167	-1374
2.42533	-1376
2.42900	-1377
2.43267	-1379
2.43633	-1381
2.44000	-1384
2.44367	-1389
2.44733	-1394
2.45100	-1396
2.45467	-1398
2.45833	-1400
2.46200	-1403
2.46567	-1408
2.46933	-1412
2.47300	-1411
2.47667	-1406
2.48033	-1404
2.48400	-1406
2.48767	-1406
2.49133	-1408
2.49500	-1412
2.49867	-1421
2.50233	-1438
2.50600	-1449
2.50967	-1451
2.51333	-1447
2.51700	-1440
2.52067	-1431
2.52433	-1424
2.52800	-1412
2.53167	-1406
2.53533	-1407
2.53900	-1410
2.54267	-1418
2.54633	-1427
2.55000	-1432
2.55367	-1436
2.55733	-1434
2.56100	-1425
2.56467	-1420
2.56833	-1420
2.57200	-1419
2.57567	-1415
2.57933	-1418
2.58300	-1425
2.58667	-1427
2.59033	-1428
2.59400	-1427
2.59767	-1424
2.60133	-1419
2.60500	-1416
2.60867	-1413
2.61233	-1410
2.61600	-1414
2.61967	-1418
2.62333	-1421
2.62700	-1419
2.63067	-1417
2.63433	-1418
2.63800	-1417
2.64167	-1411
2.64533	-1405
2.64900	-1404
2.65267	-1407
2.65633	-1412
2.66000	-1416
2.66367	-1419
2.66733	-1422
2.67100	-1420
2.67467	-1417
2.67833	-1413
2.68200	-1410
2.68567	-1402
2.68933	-1391
2.69300	-1387
2.69667	-1387
2.70033	-1386
2.70400	-1384
2.70767	-1382
2.71133	-1380
2.71500	-1379
2.71867	-1380
2.72233	-1383
2.72600	-1396
2.72967	-1407
2.73333	-1413
2.73700	-1415
2.74067	-1410
2.74433	-1405
2.74800	-1405
2.75167	-1407
2.75533	-1407
2.75900	-1406
2.76267	-1406
2.76633	-1408
2.77000	-1416
2.77367	-1425
2.77733	-1433
2.78100	-1435
2.78467	-1432
2.78833	-1427
2.79200	-1423
2.79567	-1416
2.79933	-1408
2.80300	-1400
2.80667	-1387
2.81033	-1378
2.81400	-1377
2.81767	-1376
2.82133	-1378
2.82500	-1388
2.82867	-1397
2.83233	-1400
2.83600	-1401
2.83967	-1400
2.84333	-1400
2.84700	-1400
2.85067	-1399
2.85433	-1396
2.85800	-1394
2.86167	-1390
2.86533	-1387
2.86900	-1393
2.87267	-1398
2.87633	-1396
2.88000	-1393
2.88367	-1394
2.88733	-1394
2.89100	-1394
2.89467	-1392
2.89833	-1388
2.90200	-1381
2.90567	-1379
2.90933	-1377
2.91300	-1373
2.91667	-1374
2.92033	-1377
2.92400	-1378
2.92767	-1382
2.93133	-1381
2.93500	-1384
2.93867	-1387
2.94233	-1387
2.94600	-1387
2.94967	-1386
2.95333	-1380
2.95700	-1374
2.96067	-1373
2.96433	-1371
2.96800	-1366
2.97167	-1358
2.97533	-1352
2.97900	-1348
2.98267	-1351
2.98633	-1353
2.99000	-1355
2.99367	-1357
2.99733	-1356
3.00100	-1352
3.00467	-1351
3.00833	-1352
3.01200	-1355
3.01567	-1359
3.01933	-1364
3.02300	-1368
3.02667	-1371
3.03033	-1374
3.03400	-1375
3.03767	-1373
3.04133	-1373
3.04500	-1373
3.04867	-1372
3.05233	-1371
3.05600	-1372
3.05967	-1373
3.06333	-1373
3.06700	-1370
3.07067	-1364
3.07433	-1356
3.07800	-1349
3.08167	-1342
3.08533	-1341
3.08900	-1340
3.09267	-1338
3.09633	-1339
3.10000	-1343
3.10367	-1349
3.10733	-1355
3.11100	-1363
3.11467	-1372
3.11833	-1379
3.12200	-1381
3.12567	-1378
3.12933	-1375
3.13300	-1372
3.13667	-1366
3.14033	-1356
3.14400	-1343
3.14767	-1333
3.15133	-1330
3.15500	-1334
3.15867	-1335
3.16233	-1333
3.16600	-1336
3.16967	-1341
3.17333	-1348
3.17700	-1355
3.18067	-1359
3.18433	-1359
3.18800	-1361
3.19167	-1357
3.19533	-1348
3.19900	-1342
3.20267	-1346
3.20633	-1351
3.21000	-1352
3.21367	-1354
3.21733	-1357
3.22100	-1359
3.22467	-1363
3.22833	-1367
3.23200	-1371
3.23567	-1373
3.23933	-1368
3.24300	-1360
3.24667	-1350
3.25033	-1339
3.25400	-1335
3.25767	-1341
3.26133	-1350
3.26500	-1353
3.26867	-1347
3.27233	-1334
3.27600	-1321
3.27967	-1311
3.28333	-1307
3.28700	-1310
3.29067	-1317
3.29433	-1324
3.29800	-1330
3.30167	-1335
3.30533	-1341
3.30900	-1338
3.31267	-1333
3.31633	-1340
3.32000	-1350
3.32367	-1352
3.32733	-1352
3.33100	-1355
3.33467	-1354
3.33833	-1347
3.34200	-1341
3.34567	-1344
3.34933	-1349
3.35300	-1358
3.35667	-1358
3.36033	-1351
3.36400	-1344
3.36767	-1336
3.37133	-1333
3.37500	-1334
3.37867	-1330
3.38233	-1323
3.38600	-1321
3.38967	-1324
3.39333	-1324
3.39700	-1321
3.40067	-1316
3.40433	-1313
3.40800	-1317
3.41167	-1328
3.41533	-1338
3.41900	-1344
3.42267	-1343
3.42633	-1344
3.43000	-1343
3.43367	-1339
3.43733	-1334
3.44100	-1330
3.44467	-1329
3.44833	-1331
3.45200	-1332
3.45567	-1336
3.45933	-1336
3.46300	-1336
3.46667	-1337
3.47033	-1337
3.47400	-1335
3.47767	-1334
3.48133	-1336
3.48500	-1339
3.48867	-1341
3.49233	-1335
3.49600	-1324
3.49967	-1315
3.50333	-1318
3.50700	-1325
3.51067	-1334
3.51433	-1336
3.51800	-1335
3.52167	-1334
3.52533	-1334
3.52900	-1330
3.53267	-1323
3.53633	-1324
3.54000	-1329
3.54367	-1333
3.54733	-1333
3.55100	-1333
3.55467	-1333
3.55833	-1333
3.56200	-1333
3.56567	-1327
3.56933	-1317
3.57300	-1310
3.57667	-1312
3.58033	-1313
3.58400	-1317
3.58767	-1322
3.59133	-1331
3.59500	-1333
3.59867	-1332
3.60233	-1331
3.60600	-1322
3.60967	-1316
3.61333	-1312
3.61700	-1311
3.62067	-1310
3.62433	-1311
3.62800	-1315
3.63167	-1320
3.63533	-1323
3.63900	-1324
3.64267	-1325
3.64633	-1324
3.65000	-1324
3.65367	-1324
3.65733	-1325
3.66100	-1330
3.66467	-1334
3.66833	-1334
3.67200	-1327
3.67567	-1316
3.67933	-1308
3.68300	-1307
3.68667	-1313
3.69033	-1324
3.69400	-1332
3.69767	-1335
3.70133	-1330
3.70500	-1321
3.70867	-1315
3.71233	-1315
3.71600	-1316
3.71967	-1317
3.72333	-1312
3.72700	-1309
3.73067	-1311
3.73433	-1316
3.73800	-1321
3.74167	-1319
3.74533	-1314
3.74900	-1314
3.75267	-1324
3.75633	-1339
3.76000	-1343
3.76367	-1338
3.76733	-1333
3.77100	-1333
3.77467	-1331
3.77833	-1321
3.78200	-1309
3.78567	-1300
3.78933	-1299
3.79300	-1302
3.79667	-1303
3.80033	-1303
3.80400	-1302
3.80767	-1295
3.81133	-1290
3.81500	-1295
3.81867	-1306
3.82233	-1316
3.82600	-1318
3.82967	-1316
3.83333	-1317
3.83700	-1317
3.84067	-1311
3.84433	-1303
3.84800	-1301
3.85167	-1301
3.85533	-1305
3.85900	-1308
3.86267	-1310
3.86633	-1312
3.87000	-1313
3.87367	-1310
3.87733	-1307
3.88100	-1304
3.88467	-1303
3.88833	-1312
3.89200	-1321
3.89567	-1316
3.89933	-1311
3.90300	-1304
3.90667	-1296
3.91033	-1286
3.91400	-1277
3.91767	-1275
3.92133	-1276
3.92500	-1281
3.92867	-1290
3.93233	-1300
3.93600	-1308
3.93967	-1315
3.94333	-1321
3.94700	-1326
3.95067	-1325
3.95433	-1317
3.95800	-1315
3.96167	-1319
3.96533	-1321
3.96900	-1322
3.97267	-1319
3.97633	-1312
3.98000	-1307
3.98367	-1301
3.98733	-1299
3.99100	-1300
3.99467	-1303
3.99833	-1306

[Chromatogram (Ch2)]
Interval(msec)	220
# of Points	1091
Start Time(min)	0.002
End Time(min)	3.998
R.Time (min)	Intensity
0.00167	-7
0.00533	-9
0.00900	-11
0.01267	-13
0.01633	-15
0.02000	-17
0.02367	-19
0.02733	-21
0.03100	-23
0.03467	-25
0.03833	-27
0.04200	-29
0.04567	-32
0.04933	-34
0.05300	-36
0.05667	-38
0.06033	-40
0.06400	-42
0.06767	-44
0.07133	-46
0.07500	-48
0.07867	-50
0.08233	-52
0.08600	-55
0.08967	-57
0.09333	-59
0.09700	-61
0.10067	-64
0.10433	-66
0.10800	-68
0.11167	-70
0.11533	-73
0.11900	-75
0.12267	-77
0.12633	-80
0.13000	-82
0.13367	-84
0.13733	-87
0.14100	-89
0.14467	-91
0.14833	-94
0.15200	-96
0.15567	-98
0.15933	-101
0.16300	-103
0.16667	-105
0.17033	-107
0.17400	-109
0.17767	-111
0.18133	-113
0.18500	-115
0.18867	-118
0.19233	-120
0.19600	-122
0.19967	-124
0.20333	-126
0.20700	-129
0.21067	-131
0.21433	-133
0.21800	-135
0.22167	-137
0.22533	-139
0.22900	-141
0.23267	-143
0.23633	-145
0.24000	-147
0.24367	-149
0.24733	-151
0.25100	-153
0.25467	-155
0.25833	-157
0.26200	-159
0.26567	-161
0.26933	-163
0.27300	-165
0.27667	-167
0.28033	-169
0.28400	-171
0.28767	-173
0.29133	-175
0.29500	-177
0.29867	-179
0.30233	-181
0.30600	-183
0.30967	-184
0.31333	-186
0.31700	-188
0.32067	-190
0.32433	-193
0.32800	-195
0.33167	-197
0.33533	-199
0.33900	-201
0.34267	-204
0.34633	-206
0.35000	-208
0.35367	-210
0.35733	-212
0.36100	-214
0.36467	-215
0.36833	-217
0.37200	-219
0.37567	-221
0.37933	-223
0.38300	-225
0.38667	-227
0.39033	-229
0.39400	-231
0.39767	-233
0.40133	-235
0.40500	-237
0.40867	-239
0.41233	-241
0.41600	-243
0.41967	-245
0.42333	-247
0.42700	-249
0.43067	-251
0.43433	-253
0.43800	-255
0.44167	-257
0.44533	-259
0.44900	-261
0.45267	-263
0.45633	-265
0.46000	-267
0.46367	-270
0.46733	-272
0.47100	-274
0.47467	-276
0.47833	-278
0.48200	-280
0.48567	-282
0.48933	-284
0.49300	-286
0.49667	-288
0.50033	-289
0.50400	-291
0.50767	-293
0.51133	-295
0.51500	-297
0.51867	-299
0.52233	-301
0.52600	-303
0.52967	-305
0.53333	-307
0.53700	-309
0.54067	-311
0.54433	-313
0.54800	-315
0.55167	-317
0.55533	-319
0.55900	-321
0.56267	-323
0.56633	-325
0.57000	-327
0.57367	-329
0.57733	-331
0.58100	-333
0.58467	-335
0.58833	-337
0.59200	-339
0.59567	-340
0.59933	-342
0.60300	-344
0.60667	-346
0.61033	-348
0.61400	-349
0.61767	-351
0.62133	-353
0.62500	-355
0.62867	-357
0.63233	-358
0.63600	-360
0.63967	-362
0.64333	-364
0.64700	-366
0.65067	-367
0.65433	-369
0.65800	-371
0.66167	-373
0.66533	-375
0.66900	-377
0.67267	-378
0.67633	-380
0.68000	-382
0.68367	-384
0.68733	-386
0.69100	-387
0.69467	-389
0.69833	-391
0.70200	-393
0.70567	-395
0.70933	-396
0.71300	-398
0.71667	-399
0.72033	-401
0.72400	-403
0.72767	-404
0.73133	-406
0.73500	-407
0.73867	-409
0.74233	-411
0.74600	-413
0.74967	-415
0.75333	-417
0.75700	-419
0.76067	-421
0.76433	-423
0.76800	-425
0.77167	-427
0.77533	-429
0.77900	-431
0.78267	-433
0.78633	-434
0.79000	-436
0.79367	-438
0.79733	-440
0.80100	-442
0.80467	-444
0.80833	-446
0.81200	-448
0.81567	-449
0.81933	-451
0.82300	-453
0.82667	-455
0.83033	-457
0.83400	-459
0.83767	-461
0.84133	-463
0.84500	-465
0.84867	-466
0.85233	-468
0.85600	-469
0.85967	-471
0.86333	-472
0.86700	-474
0.87067	-475
0.87433	-477
0.87800	-479
0.88167	-481
0.88533	-482
0.88900	-484
0.89267	-486
0.89633	-488
0.90000	-489
0.90367	-491
0.90733	-493
0.91100	-494
0.91467	-496
0.91833	-498
0.92200	-499
0.92567	-501
0.92933	-502
0.93300	-504
0.93667	-505
0.94033	-507
0.94400	-508
0.94767	-510
0.95133	-512
0.95500	-514
0.95867	-515
0.96233	-517
0.96600	-519
0.96967	-521
0.97333	-523
0.97700	-525
0.98067	-527
0.98433	-529
0.98800	-531
0.99167	-533
0.99533	-534
0.99900	-536
1.00267	-538
1.00633	-540
1.01000	-542
1.01367	-543
1.01733	-545
1.02100	-546
1.02467	-548
1.02833	-549
1.03200	-551
1.03567	-553
1.03933	-555
1.04300	-556
1.04667	-558
1.05033	-559
1.05400	-561
1.05767	-563
1.06133	-564
1.06500	-566
1.06867	-567
1.07233	-569
1.07600	-570
1.07967	-572
1.08333	-573
1.08700	-575
1.09067	-577
1.09433	-579
1.09800	-581
1.10167	-583
1.10533	-584
1.10900	-586
1.11267	-588
1.11633	-589
1.12000	-591
1.12367	-593
1.12733	-594
1.13100	-595
1.13467	-597
1.13833	-598
1.14200	-599
1.14567	-601
1.14933	-602
1.15300	-603
1.15667	-605
1.16033	-606
1.16400	-608
1.16767	-610
1.17133	-611
1.17500	-613
1.17867	-615
1.18233	-616
1.18600	-618
1.18967	-620
1.19333	-622
1.19700	-624
1.20067	-626
1.20433	-628
1.20800	-630
1.21167	-631
1.21533	-633
1.21900	-635
1.22267	-636
1.22633	-638
1.23000	-639
1.23367	-641
1.23733	-642
1.24100	-643
1.24467	-645
1.24833	-646
1.25200	-647
1.25567	-649
1.25933	-651
1.26300	-653
1.26667	-654
1.27033	-656
1.27400	-657
1.27767	-658
1.28133	-660
1.28500	-661
1.28867	-663
1.29233	-664
1.29600	-666
1.29967	-667
1.30333	-669
1.30700	-671
1.31067	-673
1.31433	-674
1.31800	-676
1.32167	-677
1.32533	-679
1.32900	-681
1.33267	-682
1.33633	-684
1.34000	-686
1.34367	-688
1.34733	-689
1.35100	-691
1.35467	-693
1.35833	-695
1.36200	-696
1.36567	-698
1.36933	-699
1.37300	-701
1.37667	-702
1.38033	-703
1.38400	-704
1.38767	-706
1.39133	-707
1.39500	-709
1.39867	-710
1.40233	-712
1.40600	-714
1.40967	-715
1.41333	-717
1.41700	-718
1.42067	-720
1.42433	-721
1.42800	-723
1.43167	-724
1.43533	-726
1.43900	-727
1.44267	-729
1.44633	-731
1.45000	-732
1.45367	-734
1.45733	-735
1.46100	-736
1.46467	-737
1.46833	-739
1.47200	-740
1.47567	-741
1.47933	-742
1.48300	-744
1.48667	-745
1.49033	-747
1.49400	-748
1.49767	-750
1.50133	-751
1.50500	-753
1.50867	-754
1.51233	-755
1.51600	-757
1.51967	-758
1.52333	-760
1.52700	-761
1.53067	-763
1.53433	-765
1.53800	-767
1.54167	-769
1.54533	-770
1.54900	-772
1.55267	-774
1.55633	-776
1.56000	-777
1.56367	-779
1.56733	-780
1.57100	-782
1.57467	-783
1.57833	-784
1.58200	-786
1.58567	-787
1.58933	-789
1.59300	-790
1.59667	-792
1.60033	-794
1.60400	-796
1.60767	-799
1.61133	-802
1.61500	-805
1.61867	-809
1.62233	-813
1.62600	-817
1.62967	-821
1.63333	-826
1.63700	-831
1.64067	-836
1.64433	-841
1.64800	-846
1.65167	-851
1.65533	-856
1.65900	-861
1.66267	-867
1.66633	-872
1.67000	-877
1.67367	-883
1.67733	-889
1.68100	-896
1.68467	-902
1.68833	-908
1.69200	-913
1.69567	-918
1.69933	-922
1.70300	-926
1.70667	-930
1.71033	-934
1.71400	-936
1.71767	-939
1.72133	-941
1.72500	-943
1.72867	-944
1.73233	-945
1.73600	-947
1.73967	-948
1.74333	-950
1.74700	-952
1.75067	-954
1.75433	-956
1.75800	-958
1.76167	-960
1.76533	-962
1.76900	-963
1.77267	-965
1.77633	-966
1.78000	-967
1.78367	-969
1.78733	-970
1.79100	-972
1.79467	-975
1.79833	-977
1.80200	-979
1.80567	-981
1.80933	-982
1.81300	-983
1.81667	-984
1.82033	-985
1.82400	-986
1.82767	-987
1.83133	-988
1.83500	-990
1.83867	-991
1.84233	-993
1.84600	-995
1.84967	-996
1.85333	-998
1.85700	-999
1.86067	-1000
1.86433	-1002
1.86800	-1004
1.87167	-1005
1.87533	-1007
1.87900	-1009
1.88267	-1011
1.88633	-1012
1.89000	-1012
1.89367	-1013
1.89733	-1013
1.90100	-1014
1.90467	-1015
1.90833	-1016
1.91200	-1017
1.91567	-1018
1.91933	-1019
1.92300	-1020
1.92667	-1022
1.93033	-1023
1.93400	-1024
1.93767	-1026
1.94133	-1027
1.94500	-1029
1.94867	-1030
1.95233	-1032
1.95600	-1033
1.95967	-1035
1.96333	-1037
1.96700	-1038
1.97067	-1039
1.97433	-1040
1.97800	-1040
1.98167	-1041
1.98533	-1042
1.98900	-1042
1.99267	-1043
1.99633	-1044
2.00000	-1045
2.00367	-1046
2.00733	-1046
2.01100	-1047
2.01467	-1048
2.01833	-1049
2.02200	-1050
2.02567	-1052
2.02933	-1053
2.03300	-1054
2.03667	-1055
2.04033	-1056
2.04400	-1057
2.04767	-1058
2.05133	-1059
2.05500	-1060
2.05867	-1060
2.06233	-1061
2.06600	-1061
2.06967	-1062
2.07333	-1062
2.07700	-1063
2.08067	-1064
2.08433	-1065
2.08800	-1067
2.09167	-1068
2.09533	-1069
2.09900	-1070
2.10267	-1071
2.10633	-1072
2.11000	-1073
2.11367	-1074
2.11733	-1075
2.12100	-1075
2.12467	-1076
2.12833	-1077
2.13200	-1078
2.13567	-1080
2.13933	-1081
2.14300	-1082
2.14667	-1083
2.15033	-1084
2.15400	-1085
2.15767	-1085
2.16133	-1086
2.16500	-1087
2.16867	-1089
2.17233	-1090
2.17600	-1091
2.17967	-1092
2.18333	-1093
2.18700	-1094
2.19067	-1094
2.19433	-1094
2.19800	-1094
2.20167	-1095
2.20533	-1095
2.20900	-1096
2.21267	-1097
2.21633	-1098
2.22000	-1099
2.22367	-1100
2.22733	-1101
2.23100	-1103
2.23467	-1103
2.23833	-1104
2.24200	-1105
2.24567	-1105
2.24933	-1106
2.25300	-1107
2.25667	-1108
2.26033	-1108
2.26400	-1109
2.26767	-1110
2.27133	-1111
2.27500	-1112
2.27867	-1113
2.28233	-1114
2.28600	-1115
2.28967	-1115
2.29333	-1116
2.29700	-1116
2.30067	-1117
2.30433	-1118
2.30800	-1119
2.31167	-1120
2.31533	-1121
2.31900	-1122
2.32267	-1123
2.32633	-1124
2.33000	-1125
2.33367	-1126
2.33733	-1127
2.34100	-1128
2.34467	-1129
2.34833	-1129
2.35200	-1130
2.35567	-1130
2.35933	-1130
2.36300	-1130
2.36667	-1129
2.37033	-1128
2.37400	-1126
2.37767	-1124
2.38133	-1122
2.38500	-1119
2.38867	-1117
2.39233	-1114
2.39600	-1111
2.39967	-1108
2.40333	-1105
2.40700	-1103
2.41067	-1101
2.41433	-1099
2.41800	-1097
2.42167	-1096
2.42533	-1095
2.42900	-1095
2.43267	-1095
2.43633	-1095
2.44000	-1095
2.44367	-1096
2.44733	-1097
2.45100	-1097
2.45467	-1098
2.45833	-1098
2.46200	-1098
2.46567	-1097
2.46933	-1097
2.47300	-1097
2.47667	-1098
2.48033	-1098
2.48400	-1098
2.48767	-1098
2.49133	-1098
2.49500	-1098
2.49867	-1097
2.50233	-1097
2.50600	-1097
2.50967	-1097
2.51333	-1098
2.51700	-1099
2.52067	-1100
2.52433	-1101
2.52800	-1101
2.53167	-1102
2.53533	-1102
2.53900	-1102
2.54267	-1103
2.54633	-1103
2.55000	-1104
2.55367	-1104
2.55733	-1105
2.56100	-1105
2.56467	-1106
2.56833	-1107
2.57200	-1108
2.57567	-1109
2.57933	-1110
2.58300	-1111
2.58667	-1111
2.59033	-1112
2.59400	-1114
2.59767	-1115
2.60133	-1116
2.60500	-1117
2.60867	-1118
2.61233	-1119
2.61600	-1120
2.61967	-1121
2.62333	-1122
2.62700	-1122
2.63067	-1123
2.63433	-1123
2.63800	-1123
2.64167	-1124
2.64533	-1125
2.64900	-1126
2.65267	-1127
2.65633	-1128
2.66000	-1130
2.66367	-1131
2.66733	-1132
2.67100	-1132
2.67467	-1133
2.67833	-1134
2.68200	-1135
2.68567	-1136
2.68933	-1137
2.69300	-1138
2.69667	-1139
2.70033	-1140
2.70400	-1141
2.70767	-1142
2.71133	-1142
2.71500	-1143
2.71867	-1143
2.72233	-1143
2.72600	-1144
2.72967	-1145
2.73333	-1146
2.73700	-1147
2.74067	-1149
2.74433	-1150
2.74800	-1152
2.75167	-1153
2.75533	-1155
2.75900	-1156
2.76267	-1158
2.76633	-1159
2.77000	-1160
2.77367	-1160
2.77733	-1161
2.78100	-1162
2.78467	-1162
2.78833	-1163
2.79200	-1164
2.79567	-1165
2.79933	-1166
2.80300	-1167
2.80667	-1168
2.81033	-1168
2.81400	-1169
2.81767	-1170
2.82133	-1171
2.82500	-1171
2.82867	-1172
2.83233	-1174
2.83600	-1176
2.83967	-1180
2.84333	-1185
2.84700	-1194
2.85067	-1205
2.85433	-1221
2.85800	-1242
2.86167	-1268
2.86533	-1299
2.86900	-1336
2.87267	-1378
2.87633	-1426
2.88000	-1479
2.88367	-1537
2.88733	-1600
2.89100	-1667
2.89467	-1737
2.89833	-1811
2.90200	-1889
2.90567	-1968
2.90933	-2051
2.91300	-2135
2.91667	-2220
2.92033	-2308
2.92400	-2397
2.92767	-2488
2.93133	-2579
2.93500	-2671
2.93867	-2765
2.94233	-2858
2.94600	-2937
2.94967	-2990
2.95333	-3006
2.95700	-2982
2.96067	-2921
2.96433	-2831
2.96800	-2721
2.97167	-2599
2.97533	-2473
2.97900	-2346
2.98267	-2225
2.98633	-2111
2.99000	-2005
2.99367	-1909
2.99733	-1823
3.00100	-1746
3.00467	-1678
3.00833	-1619
3.01200	-1567
3.01567	-1523
3.01933	-1484
3.02300	-1451
3.02667	-1423
3.03033	-1399
3.03400	-1378
3.03767	-1360
3.04133	-1345
3.04500	-1332
3.04867	-1322
3.05233	-1312
3.05600	-1305
3.05967	-1298
3.06333	-1292
3.06700	-1288
3.07067	-1284
3.07433	-1281
3.07800	-1278
3.08167	-1276
3.08533	-1274
3.08900	-1273
3.09267	-1271
3.09633	-1270
3.10000	-1269
3.10367	-1269
3.10733	-1268
3.11100	-1268
3.11467	-1268
3.11833	-1269
3.12200	-1269
3.12567	-1269
3.12933	-1269
3.13300	-1270
3.13667	-1270
3.14033	-1271
3.14400	-1271
3.14767	-1272
3.15133	-1273
3.15500	-1273
3.15867	-1274
3.16233	-1275
3.16600	-1275
3.16967	-1276
3.17333	-1277
3.17700	-1278
3.18067	-1278
3.18433	-1279
3.18800	-1279
3.19167	-1280
3.19533	-1281
3.19900	-1281
3.20267	-1281
3.20633	-1282
3.21000	-1282
3.21367	-1283
3.21733	-1284
3.22100	-1285
3.22467	-1285
3.22833	-1286
3.23200	-1287
3.23567	-1288
3.23933	-1288
3.24300	-1289
3.24667	-1290
3.25033	-1290
3.25400	-1291
3.25767	-1291
3.26133	-1292
3.26500	-1292
3.26867	-1293
3.27233	-1294
3.27600	-1294
3.27967	-1295
3.28333	-1296
3.28700	-1296
3.29067	-1297
3.29433	-1297
3.29800	-1298
3.30167	-1299
3.30533	-1300
3.30900	-1301
3.31267	-1302
3.31633	-1303
3.32000	-1304
3.32367	-1305
3.32733	-1306
3.33100	-1307
3.33467	-1307
3.33833	-1308
3.34200	-1309
3.34567	-1310
3.34933	-1311
3.35300	-1312
3.35667	-1313
3.36033	-1314
3.36400	-1315
3.36767	-1316
3.37133	-1316
3.37500	-1316
3.37867	-1316
3.38233	-1317
3.38600	-1317
3.38967	-1318
3.39333	-1318
3.39700	-1319
3.40067	-1319
3.40433	-1320
3.40800	-1321
3.41167	-1321
3.41533	-1322
3.41900	-1323
3.42267	-1323
3.42633	-1324
3.43000	-1325
3.43367	-1326
3.43733	-1327
3.44100	-1328
3.44467	-1328
3.44833	-1329
3.45200	-1330
3.45567	-1332
3.45933	-1333
3.46300	-1334
3.46667	-1335
3.47033	-1336
3.47400	-1337
3.47767	-1338
3.48133	-1339
3.48500	-1340
3.48867	-1340
3.49233	-1341
3.49600	-1342
3.49967	-1343
3.50333	-1343
3.50700	-1344
3.51067	-1345
3.51433	-1346
3.51800	-1347
3.52167	-1348
3.52533	-1349
3.52900	-1350
3.53267	-1351
3.53633	-1352
3.54000	-1353
3.54367	-1354
3.54733	-1355
3.55100	-1356
3.55467	-1357
3.55833	-1358
3.56200	-1359
3.56567	-1360
3.56933	-1360
3.57300	-1361
3.57667	-1362
3.58033	-1363
3.58400	-1364
3.58767	-1364
3.59133	-1365
3.59500	-1366
3.59867	-1367
3.60233	-1368
3.60600	-1369
3.60967	-1370
3.61333	-1371
3.61700	-1372
3.62067	-1373
3.62433	-1374
3.62800	-1375
3.63167	-1375
3.63533	-1376
3.63900	-1376
3.64267	-1377
3.64633	-1378
3.65000	-1378
3.65367	-1379
3.65733	-1379
3.66100	-1380
3.66467	-1381
3.66833	-1382
3.67200	-1383
3.67567	-1383
3.67933	-1384
3.68300	-1385
3.68667	-1385
3.69033	-1386
3.69400	-1387
3.69767	-1387
3.70133	-1388
3.70500	-1390
3.70867	-1391
3.71233	-1392
3.71600	-1392
3.71967	-1393
3.72333	-1394
3.72700	-1394
3.73067	-1395
3.73433	-1396
3.73800	-1398
3.74167	-1399
3.74533	-1400
3.74900	-1401
3.75267	-1401
3.75633	-1402
3.76000	-1403
3.76367	-1404
3.76733	-1405
3.77100	-1405
3.77467	-1406
3.77833	-1406
3.78200	-1407
3.78567	-1408
3.78933	-1409
3.79300	-1410
3.79667	-1411
3.80033	-1412
3.80400	-1413
3.80767	-1414
3.81133	-1415
3.81500	-1416
3.81867	-1417
3.82233	-1418
3.82600	-1419
3.82967	-1419
3.83333	-1420
3.83700	-1421
3.84067	-1422
3.84433	-1422
3.84800	-1423
3.85167	-1424
3.85533	-1424
3.85900	-1425
3.86267	-1426
3.86633	-1427
3.87000	-1427
3.87367	-1428
3.87733	-1428
3.88100	-1429
3.88467	-1430
3.88833	-1431
3.89200	-1431
3.89567	-1432
3.89933	-1433
3.90300	-1433
3.90667	-1434
3.91033	-1435
3.91400	-1435
3.91767	-1436
3.92133	-1437
3.92500	-1438
3.92867	-1439
3.93233	-1440
3.93600	-1441
3.93967	-1441
3.94333	-1442
3.94700	-1443
3.95067	-1444
3.95433	-1444
3.95800	-1445
3.96167	-1446
3.96533	-1446
3.96900	-1447
3.97267	-1448
3.97633	-1449
3.98000	-1449
3.98367	-1450
3.98733	-1450
3.99100	-1451
3.99467	-1452
3.99833	-1452

[Chromatogram (Ch3)]
Interval(msec)	220
# of Points	1091
Start Time(min)	0.002
End Time(min)	3.998
R.Time (min)	Intensity
0.00167	0
0.00533	-1
0.00900	-0
0.01267	1
0.01633	3
0.02000	3
0.02367	2
0.02733	1
0.03100	-1
0.03467	-1
0.03833	-1
0.04200	1
0.04567	2
0.04933	1
0.05300	1
0.05667	3
0.06033	4
0.06400	3
0.06767	0
0.07133	-4
0.07500	-7
0.07867	-9
0.08233	-8
0.08600	-5
0.08967	-3
0.09333	-4
0.09700	-5
0.10067	-4
0.10433	-3
0.10800	-2
0.11167	-0
0.11533	0
0.11900	-2
0.12267	-3
0.12633	-4
0.13000	-3
0.13367	-2
0.13733	-3
0.14100	-5
0.14467	-8
0.14833	-10
0.15200	-10
0.15567	-9
0.15933	-8
0.16300	-9
0.16667	-12
0.17033	-12
0.17400	-10
0.17767	-8
0.18133	-8
0.18500	-9
0.18867	-11
0.19233	-13
0.19600	-13
0.19967	-10
0.20333	-7
0.20700	-6
0.21067	-6
0.21433	-4
0.21800	-4
0.22167	-5
0.22533	-6
0.22900	-5
0.23267	-3
0.23633	-4
0.24000	-4
0.24367	-5
0.24733	-7
0.25100	-6
0.25467	-7
0.25833	-7
0.26200	-6
0.26567	-6
0.26933	-6
0.27300	-7
0.27667	-8
0.28033	-5
0.28400	-2
0.28767	1
0.29133	3
0.29500	3
0.29867	3
0.30233	0
0.30600	-2
0.30967	-2
0.31333	-2
0.31700	-2
0.32067	-1
0.32433	-0
0.32800	-0
0.33167	-0
0.33533	0
0.33900	1
0.34267	0
0.34633	-2
0.35000	-3
0.35367	-2
0.35733	-3
0.36100	-3
0.36467	-3
0.36833	-3
0.37200	-3
0.37567	-4
0.37933	-4
0.38300	-3
0.38667	-5
0.39033	-8
0.39400	-8
0.39767	-7
0.40133	-7
0.40500	-7
0.40867	-7
0.41233	-7
0.41600	-6
0.41967	-6
0.42333	-6
0.42700	-6
0.43067	-6
0.43433	-5
0.43800	-5
0.44167	-6
0.44533	-7
0.44900	-8
0.45267	-9
0.45633	-8
0.46000	-8
0.46367	-7
0.46733	-6
0.47100	-6
0.47467	-7
0.47833	-9
0.48200	-9
0.48567	-8
0.48933	-7
0.49300	-7
0.49667	-7
0.50033	-5
0.50400	-4
0.50767	-6
0.51133	-9
0.51500	-10
0.51867	-10
0.52233	-8
0.52600	-7
0.52967	-7
0.53333	-7
0.53700	-9
0.54067	-10
0.54433	-13
0.54800	-12
0.55167	-11
0.55533	-12
0.55900	-10
0.56267	-10
0.56633	-9
0.57000	-8
0.57367	-8
0.57733	-8
0.58100	-7
0.58467	-7
0.58833	-10
0.59200	-12
0.59567	-13
0.59933	-13
0.60300	-12
0.60667	-11
0.61033	-9
0.61400	-9
0.61767	-9
0.62133	-9
0.62500	-10
0.62867	-10
0.63233	-10
0.63600	-9
0.63967	-8
0.64333	-8
0.64700	-11
0.65067	-13
0.65433	-15
0.65800	-15
0.66167	-15
0.66533	-15
0.66900	-11
0.67267	-10
0.67633	-10
0.68000	-10
0.68367	-12
0.68733	-13
0.69100	-13
0.69467	-12
0.69833	-12
0.70200	-13
0.70567	-13
0.70933	-11
0.71300	-11
0.71667	-12
0.72033	-14
0.72400	-14
0.72767	-13
0.73133	-12
0.73500	-9
0.73867	-9
0.74233	-12
0.74600	-14
0.74967	-14
0.75333	-14
0.75700	-13
0.76067	-12
0.76433	-11
0.76800	-11
0.77167	-11
0.77533	-12
0.77900	-14
0.78267	-14
0.78633	-11
0.79000	-9
0.79367	-8
0.79733	-5
0.80100	-3
0.80467	-2
0.80833	-3
0.81200	-3
0.81567	-5
0.81933	-6
0.82300	-6
0.82667	-6
0.83033	-6
0.83400	-5
0.83767	-6
0.84133	-8
0.84500	-8
0.84867	-8
0.85233	-8
0.85600	-7
0.85967	-6
0.86333	-7
0.86700	-10
0.87067	-11
0.87433	-7
0.87800	-5
0.88167	-4
0.88533	-4
0.88900	-7
0.89267	-8
0.89633	-7
0.90000	-7
0.90367	-5
0.90733	-4
0.91100	-6
0.91467	-7
0.91833	-8
0.92200	-8
0.92567	-7
0.92933	-8
0.93300	-8
0.93667	-8
0.94033	-9
0.94400	-9
0.94767	-8
0.95133	-9
0.95500	-10
0.95867	-12
0.96233	-10
0.96600	-9
0.96967	-10
0.97333	-11
0.97700	-11
0.98067	-11
0.98433	-10
0.98800	-8
0.99167	-8
0.99533	-8
0.99900	-7
1.00267	-7
1.00633	-8
1.01000	-9
1.01367	-9
1.01733	-11
1.02100	-14
1.02467	-15
1.02833	-15
1.03200	-13
1.03567	-12
1.03933	-13
1.04300	-14
1.04667	-14
1.05033	-14
1.05400	-12
1.05767	-10
1.06133	-9
1.06500	-8
1.06867	-7
1.07233	-8
1.07600	-9
1.07967	-11
1.08333	-13
1.08700	-13
1.09067	-10
1.09433	-9
1.09800	-9
1.10167	-10
1.10533	-10
1.10900	-10
1.11267	-10
1.11633	-12
1.12000	-10
1.12367	-9
1.12733	-9
1.13100	-8
1.13467	-7
1.13833	-7
1.14200	-6
1.14567	-5
1.14933	-7
1.15300	-8
1.15667	-7
1.16033	-8
1.16400	-8
1.16767	-7
1.17133	-6
1.17500	-5
1.17867	-5
1.18233	-5
1.18600	-4
1.18967	-6
1.19333	-6
1.19700	-5
1.20067	-6
1.20433	-7
1.20800	-11
1.21167	-14
1.21533	-14
1.21900	-14
1.22267	-15
1.22633	-16
1.23000	-16
1.23367	-16
1.23733	-14
1.24100	-12
1.24467	-10
1.24833	-10
1.25200	-9
1.25567	-8
1.25933	-8
1.26300	-10
1.26667	-10
1.27033	-12
1.27400	-12
1.27767	-9
1.28133	-8
1.28500	-7
1.28867	-7
1.29233	-8
1.29600	-8
1.29967	-8
1.30333	-8
1.30700	-8
1.31067	-8
1.31433	-9
1.31800	-7
1.32167	-6
1.32533	-7
1.32900	-8
1.33267	-10
1.33633	-12
1.34000	-12
1.34367	-10
1.34733	-8
1.35100	-7
1.35467	-5
1.35833	-4
1.36200	-3
1.36567	-3
1.36933	-4
1.37300	-7
1.37667	-7
1.38033	-6
1.38400	-5
1.38767	-6
1.39133	-8
1.39500	-9
1.39867	-8
1.40233	-5
1.40600	-5
1.40967	-6
1.41333	-7
1.41700	-6
1.42067	-5
1.42433	-5
1.42800	-7
1.43167	-9
1.43533	-11
1.43900	-10
1.44267	-8
1.44633	-7
1.45000	-8
1.45367	-8
1.45733	-7
1.46100	-7
1.46467	-8
1.46833	-8
1.47200	-7
1.47567	-7
1.47933	-8
1.48300	-6
1.48667	-4
1.49033	-3
1.49400	-1
1.49767	-2
1.50133	-3
1.50500	-5
1.50867	-4
1.51233	-3
1.51600	-3
1.51967	-5
1.52333	-5
1.52700	-5
1.53067	-7
1.53433	-8
1.53800	-9
1.54167	-9
1.54533	-9
1.54900	-7
1.55267	-5
1.55633	-6
1.56000	-8
1.56367	-7
1.56733	-7
1.57100	-7
1.57467	-7
1.57833	-7
1.58200	-8
1.58567	-9
1.58933	-8
1.59300	-7
1.59667	-6
1.60033	-6
1.60400	-5
1.60767	-5
1.61133	-5
1.61500	-6
1.61867	-5
1.62233	-2
1.62600	-1
1.62967	-1
1.63333	-0
1.63700	-1
1.64067	-1
1.64433	1
1.64800	1
1.65167	-1
1.65533	-2
1.65900	-4
1.66267	-6
1.66633	-6
1.67000	-5
1.67367	-2
1.67733	3
1.68100	3
1.68467	4
1.68833	5
1.69200	5
1.69567	5
1.69933	5
1.70300	6
1.70667	5
1.71033	5
1.71400	5
1.71767	6
1.72133	8
1.72500	9
1.72867	10
1.73233	12
1.73600	12
1.73967	13
1.74333	13
1.74700	12
1.75067	11
1.75433	14
1.75800	14
1.76167	15
1.76533	16
1.76900	16
1.77267	17
1.77633	18
1.78000	17
1.78367	17
1.78733	16
1.79100	16
1.79467	16
1.79833	16
1.80200	18
1.80567	20
1.80933	21
1.81300	19
1.81667	19
1.82033	20
1.82400	23
1.82767	25
1.83133	26
1.83500	29
1.83867	29
1.84233	28
1.84600	29
1.84967	30
1.85333	30
1.85700	29
1.86067	29
1.86433	29
1.86800	31
1.87167	32
1.87533	31
1.87900	31
1.88267	31
1.88633	32
1.89000	33
1.89367	33
1.89733	33
1.90100	33
1.90467	35
1.90833	36
1.91200	34
1.91567	33
1.91933	34
1.92300	37
1.92667	39
1.93033	38
1.93400	38
1.93767	38
1.94133	39
1.94500	40
1.94867	40
1.95233	40
1.95600	42
1.95967	42
1.96333	40
1.96700	40
1.97067	43
1.97433	45
1.97800	47
1.98167	49
1.98533	49
1.98900	50
1.99267	50
1.99633	51
2.00000	52
2.00367	51
2.00733	50
2.01100	51
2.01467	52
2.01833	53
2.02200	54
2.02567	55
2.02933	57
2.03300	58
2.03667	59
2.04033	60
2.04400	62
2.04767	63
2.05133	61
2.05500	60
2.05867	59
2.06233	60
2.06600	65
2.06967	68
2.07333	71
2.07700	73
2.08067	75
2.08433	75
2.08800	74
2.09167	73
2.09533	73
2.09900	76
2.10267	77
2.10633	78
2.11000	77
2.11367	78
2.11733	78
2.12100	79
2.12467	82
2.12833	85
2.13200	85
2.13567	85
2.13933	84
2.14300	83
2.14667	83
2.15033	85
2.15400	90
2.15767	94
2.16133	97
2.16500	98
2.16867	97
2.17233	98
2.17600	100
2.17967	101
2.18333	100
2.18700	99
2.19067	99
2.19433	100
2.19800	101
2.20167	102
2.20533	102
2.20900	102
2.21267	102
2.21633	105
2.22000	107
2.22367	110
2.22733	110
2.23100	112
2.23467	113
2.23833	114
2.24200	116
2.24567	118
2.24933	118
2.25300	120
2.25667	123
2.26033	123
2.26400	123
2.26767	125
2.27133	128
2.27500	129
2.27867	128
2.28233	127
2.28600	127
2.28967	130
2.29333	132
2.29700	132
2.30067	130
2.30433	131
2.30800	134
2.31167	137
2.31533	140
2.31900	141
2.32267	143
2.32633	146
2.33000	146
2.33367	145
2.33733	148
2.34100	153
2.34467	156
2.34833	157
2.35200	156
2.35567	154
2.35933	153
2.36300	154
2.36667	154
2.37033	154
2.37400	157
2.37767	159
2.38133	162
2.38500	163
2.38867	162
2.39233	162
2.39600	162
2.39967	165
2.40333	169
2.40700	171
2.41067	172
2.41433	172
2.41800	172
2.42167	173
2.42533	173
2.42900	172
2.43267	174
2.43633	175
2.44000	178
2.44367	209
2.44733	294
2.45100	395
2.45467	480
2.45833	521
2.46200	524
2.46567	517
2.46933	517
2.47300	517
2.47667	505
2.48033	478
2.48400	445
2.48767	412
2.49133	384
2.49500	364
2.49867	350
2.50233	346
2.50600	353
2.50967	368
2.51333	385
2.51700	396
2.52067	398
2.52433	392
2.52800	376
2.53167	355
2.53533	332
2.53900	310
2.54267	291
2.54633	275
2.55000	262
2.55367	252
2.55733	244
2.56100	242
2.56467	243
2.56833	244
2.57200	245
2.57567	244
2.57933	245
2.58300	248
2.58667	252
2.59033	259
2.59400	265
2.59767	270
2.60133	274
2.60500	273
2.60867	267
2.61233	258
2.61600	245
2.61967	231
2.62333	216
2.62700	199
2.63067	179
2.63433	159
2.63800	142
2.64167	129
2.64533	117
2.64900	108
2.65267	101
2.65633	97
2.66000	95
2.66367	94
2.66733	93
2.67100	93
2.67467	95
2.67833	98
2.68200	104
2.68567	109
2.68933	113
2.69300	118
2.69667	122
2.70033	127
2.70400	132
2.70767	137
2.71133	144
2.71500	152
2.71867	157
2.72233	162
2.72600	166
2.72967	170
2.73333	174
2.73700	176
2.74067	179
2.74433	182
2.74800	183
2.75167	184
2.75533	186
2.75900	191
2.76267	195
2.76633	198
2.77000	200
2.77367	203
2.77733	207
2.78100	211
2.78467	215
2.78833	221
2.79200	226
2.79567	230
2.79933	235
2.80300	243
2.80667	248
2.81033	255
2.81400	267
2.81767	293
2.82133	357
2.82500	498
2.82867	766
2.83233	1232
2.83600	1960
2.83967	2982
2.84333	4300
2.84700	5877
2.85067	7635
2.85433	9475
2.85800	11282
2.86167	12944
2.86533	14344
2.86900	15402
2.87267	16058
2.87633	16294
2.88000	16135
2.88367	15630
2.88733	14853
2.89100	13886
2.89467	12810
2.89833	11684
2.90200	10558
2.90567	9473
2.90933	8451
2.91300	7507
2.91667	6644
2.92033	5858
2.92400	5153
2.92767	4526
2.93133	3972
2.93500	3483
2.93867	3051
2.94233	2672
2.94600	2342
2.94967	2054
2.95333	1804
2.95700	1587
2.96067	1399
2.96433	1235
2.96800	1095
2.97167	975
2.97533	871
2.97900	782
2.98267	705
2.98633	639
2.99000	582
2.99367	531
2.99733	488
3.00100	453
3.00467	419
3.00833	390
3.01200	364
3.01567	340
3.01933	323
3.02300	311
3.02667	300
3.03033	290
3.03400	281
3.03767	273
3.04133	265
3.04500	259
3.04867	255
3.05233	250
3.05600	246
3.05967	243
3.06333	239
3.06700	236
3.07067	234
3.07433	232
3.07800	230
3.08167	227
3.08533	226
3.08900	226
3.09267	225
3.09633	224
3.10000	222
3.10367	220
3.10733	219
3.11100	220
3.11467	219
3.11833	217
3.12200	216
3.12567	217
3.12933	218
3.13300	218
3.13667	218
3.14033	219
3.14400	221
3.14767	221
3.15133	222
3.15500	226
3.15867	227
3.16233	228
3.16600	226
3.16967	224
3.17333	223
3.17700	222
3.18067	223
3.18433	225
3.18800	226
3.19167	227
3.19533	229
3.19900	231
3.20267	232
3.20633	234
3.21000	234
3.21367	235
3.21733	236
3.22100	236
3.22467	238
3.22833	238
3.23200	239
3.23567	240
3.23933	243
3.24300	242
3.24667	244
3.25033	246
3.25400	248
3.25767	248
3.26133	248
3.26500	248
3.26867	249
3.27233	250
3.27600	248
3.27967	247
3.28333	248
3.28700	251
3.29067	253
3.29433	254
3.29800	255
3.30167	257
3.30533	257
3.30900	255
3.31267	255
3.31633	255
3.32000	257
3.32367	257
3.32733	256
3.33100	256
3.33467	254
3.33833	252
3.34200	252
3.34567	254
3.34933	255
3.35300	255
3.35667	255
3.36033	256
3.36400	256
3.36767	256
3.37133	255
3.37500	254
3.37867	254
3.38233	254
3.38600	255
3.38967	254
3.39333	253
3.39700	253
3.40067	253
3.40433	254
3.40800	254
3.41167	250
3.41533	247
3.41900	245
3.42267	243
3.42633	241
3.43000	240
3.43367	240
3.43733	240
3.44100	239
3.44467	237
3.44833	236
3.45200	234
3.45567	233
3.45933	231
3.46300	231
3.46667	232
3.47033	231
3.47400	230
3.47767	229
3.48133	227
3.48500	225
3.48867	224
3.49233	223
3.49600	222
3.49967	220
3.50333	219
3.50700	218
3.51067	217
3.51433	219
3.51800	217
3.52167	215
3.52533	215
3.52900	213
3.53267	211
3.53633	210
3.54000	207
3.54367	205
3.54733	204
3.55100	204
3.55467	204
3.55833	203
3.56200	201
3.56567	201
3.56933	201
3.57300	202
3.57667	201
3.58033	200
3.58400	199
3.58767	199
3.59133	199
3.59500	198
3.59867	196
3.60233	196
3.60600	196
3.60967	194
3.61333	193
3.61700	193
3.62067	194
3.62433	196
3.62800	197
3.63167	199
3.63533	197
3.63900	194
3.64267	191
3.64633	190
3.65000	188
3.65367	186
3.65733	185
3.66100	188
3.66467	188
3.66833	188
3.67200	187
3.67567	187
3.67933	186
3.68300	186
3.68667	188
3.69033	189
3.69400	190
3.69767	190
3.70133	188
3.70500	186
3.70867	187
3.71233	188
3.71600	187
3.71967	187
3.72333	189
3.72700	190
3.73067	189
3.73433	189
3.73800	188
3.74167	188
3.74533	186
3.74900	185
3.75267	186
3.75633	186
3.76000	186
3.76367	186
3.76733	186
3.77100	185
3.77467	187
3.77833	189
3.78200	191
3.78567	190
3.78933	191
3.79300	191
3.79667	190
3.80033	187
3.80400	184
3.80767	183
3.81133	182
3.81500	181
3.81867	182
3.82233	183
3.82600	185
3.82967	184
3.83333	183
3.83700	186
3.84067	188
3.84433	188
3.84800	188
3.85167	187
3.85533	187
3.85900	186
3.86267	185
3.86633	186
3.87000	187
3.87367	186
3.87733	186
3.88100	186
3.88467	186
3.88833	185
3.89200	184
3.89567	185
3.89933	186
3.90300	185
3.90667	184
3.91033	184
3.91400	183
3.91767	182
3.92133	183
3.92500	185
3.92867	186
3.93233	183
3.93600	182
3.93967	181
3.94333	181
3.94700	184
3.95067	186
3.95433	186
3.95800	184
3.96167	182
3.96533	182
3.96900	184
3.97267	186
3.97633	188
3.98000	188
3.98367	187
3.98733	186
3.99100	185
3.99467	183
3.99833	181

[Status Trace (Column Oven Temperature)]
Interval(msec)	1000
# of Points	240
Start Time(min)	0.001
End Time(min)	3.984
Intensity Units	
Intensity Multiplier	1
R.Time (min)	Intensity
0.00103	35.01
0.01770	35.01
0.03437	34.99
0.05103	34.98
0.06770	34.98
0.08437	34.98
0.10103	34.99
0.11770	34.99
0.13437	34.99
0.15103	35.00
0.16770	35.00
0.18437	35.00
0.20103	35.01
0.21770	35.01
0.23437	35.02
0.25103	35.01
0.26770	35.01
0.28437	35.00
0.30103	35.00
0.31770	35.00
0.33437	35.00
0.35103	35.01
0.36770	35.00
0.38437	35.00
0.40103	34.99
0.41770	34.99
0.43437	35.00
0.45103	35.00
0.46770	35.00
0.48437	35.00
0.50103	35.01
0.51770	35.01
0.53437	35.01
0.55103	35.02
0.56770	35.02
0.58437	35.02
0.60103	35.02
0.61770	35.02
0.63437	35.02
0.65103	35.02
0.66770	35.02
0.68437	35.01
0.70103	35.00
0.71770	34.99
0.73437	34.99
0.75103	34.99
0.76770	34.99
0.78437	35.00
0.80103	35.01
0.81770	35.01
0.83437	35.02
0.85103	35.02
0.86770	35.02
0.88437	35.02
0.90103	35.02
0.91770	35.01
0.93437	35.01
0.95103	35.01
0.96770	35.00
0.98437	35.01
1.00103	35.01
1.01770	35.01
1.03437	35.02
1.05103	35.01
1.06770	35.01
1.08437	35.01
1.10103	35.01
1.11770	35.01
1.13437	35.00
1.15103	35.00
1.16770	35.00
1.18437	35.00
1.20103	35.00
1.21770	35.01
1.23437	35.01
1.25103	35.00
1.26770	35.00
1.28437	34.99
1.30103	35.00
1.31770	35.00
1.33437	35.01
1.35103	35.01
1.36770	35.01
1.38437	35.01
1.40103	35.00
1.41770	35.00
1.43437	35.01
1.45103	35.01
1.46770	35.00
1.48437	35.00
1.50103	35.01
1.51770	35.00
1.53437	35.01
1.55103	35.01
1.56770	35.01
1.58437	35.01
1.60103	35.04
1.61770	35.14
1.63437	35.30
1.65103	35.52
1.66770	35.81
1.68437	36.18
1.70103	36.54
1.71770	36.88
1.73437	37.20
1.75103	37.54
1.76770	37.86
1.78437	38.20
1.80103	38.54
1.81770	38.87
1.83437	39.21
1.85103	39.53
1.86770	39.86
1.88437	40.19
1.90103	40.51
1.91770	40.84
1.93437	41.17
1.95103	41.51
1.96770	41.85
1.98437	42.19
2.00103	42.51
2.01770	42.83
2.03437	43.17
2.05103	43.50
2.06770	43.81
2.08437	44.13
2.10103	44.46
2.11770	44.79
2.13437	45.13
2.15103	45.44
2.16770	45.77
2.18437	46.11
2.20103	46.41
2.21770	46.75
2.23437	47.07
2.25103	47.40
2.26770	47.74
2.28437	48.06
2.30103	48.38
2.31770	48.70
2.33437	49.04
2.35103	49.33
2.36770	49.56
2.38437	49.65
2.40103	49.67
2.41770	49.66
2.43437	49.69
2.45103	49.71
2.46770	49.72
2.48437	49.75
2.50103	49.73
2.51770	49.76
2.53437	49.77
2.55103	49.78
2.56770	49.80
2.58437	49.81
2.60103	49.82
2.61770	49.84
2.63437	49.83
2.65103	49.84
2.66770	49.84
2.68437	49.86
2.70103	49.86
2.71770	49.83
2.73437	49.85
2.75103	49.86
2.76770	49.87
2.78437	49.87
2.80103	49.87
2.81770	49.87
2.83437	49.86
2.85103	49.87
2.86770	49.88
2.88437	49.88
2.90103	49.90
2.91770	49.91
2.93437	49.93
2.95103	49.94
2.96770	49.95
2.98437	49.96
3.00103	49.97
3.01770	49.98
3.03437	50.00
3.05103	50.01
3.06770	50.01
3.08437	50.02
3.10103	50.01
3.11770	50.02
3.13437	50.04
3.15103	50.04
3.16770	50.05
3.18437	50.07
3.20103	50.07
3.21770	50.08
3.23437	50.09
3.25103	50.09
3.26770	50.09
3.28437	50.09
3.30103	50.09
3.31770	50.09
3.33437	50.10
3.35103	50.12
3.36770	50.11
3.38437	50.10
3.40103	50.08
3.41770	50.05
3.43437	50.04
3.45103	50.04
3.46770	50.03
3.48437	50.03
3.50103	50.03
3.51770	50.03
3.53437	50.03
3.55103	50.03
3.56770	50.03
3.58437	50.04
3.60103	50.04
3.61770	50.03
3.63437	50.03
3.65103	50.03
3.66770	50.03
3.68437	50.02
3.70103	50.02
3.71770	50.02
3.73437	50.02
3.75103	50.03
3.76770	50.03
3.78437	50.04
3.80103	50.05
3.81770	50.05
3.83437	50.06
3.85103	50.06
3.86770	50.07
3.88437	50.08
3.90103	50.08
3.91770	50.08
3.93437	50.08
3.95103	50.08
3.96770	50.09
3.98437	50.09

[Status Trace (Injection Unit Temperature)]
Interval(msec)	1000
# of Points	240
Start Time(min)	0.001
End Time(min)	3.984
Intensity Units	
Intensity Multiplier	1
R.Time (min)	Intensity
0.00103	100.00
0.01770	100.00
0.03437	100.00
0.05103	100.00
0.06770	100.00
0.08437	100.00
0.10103	100.00
0.11770	100.00
0.13437	100.00
0.15103	100.01
0.16770	100.01
0.18437	100.00
0.20103	100.00
0.21770	100.01
0.23437	100.00
0.25103	100.01
0.26770	100.01
0.28437	100.01
0.30103	100.01
0.31770	100.01
0.33437	100.01
0.35103	100.01
0.36770	100.01
0.38437	100.01
0.40103	100.01
0.41770	100.01
0.43437	100.01
0.45103	100.00
0.46770	100.01
0.48437	100.01
0.50103	100.01
0.51770	100.01
0.53437	100.01
0.55103	100.01
0.56770	100.01
0.58437	100.01
0.60103	100.01
0.61770	100.01
0.63437	100.01
0.65103	100.01
0.66770	100.01
0.68437	100.01
0.70103	100.01
0.71770	100.01
0.73437	100.01
0.75103	100.01
0.76770	100.01
0.78437	100.01
0.80103	100.01
0.81770	100.01
0.83437	100.01
0.85103	100.01
0.86770	100.01
0.88437	100.01
0.90103	100.01
0.91770	100.01
0.93437	100.01
0.95103	100.01
0.96770	100.01
0.98437	100.01
1.00103	100.01
1.01770	100.01
1.03437	100.01
1.05103	100.01
1.06770	100.01
1.08437	100.01
1.10103	100.01
1.11770	100.01
1.13437	100.01
1.15103	100.01
1.16770	100.01
1.18437	100.01
1.20103	100.01
1.21770	100.01
1.23437	100.01
1.25103	100.01
1.26770	100.01
1.28437	100.01
1.30103	100.01
1.31770	100.01
1.33437	100.01
1.35103	100.01
1.36770	100.01
1.38437	100.01
1.40103	100.01
1.41770	100.01
1.43437	100.00
1.45103	100.00
1.46770	100.01
1.48437	100.01
1.50103	100.01
1.51770	100.01
1.53437	100.01
1.55103	100.01
1.56770	100.01
1.58437	100.00
1.60103	100.00
1.61770	100.00
1.63437	100.00
1.65103	100.01
1.66770	100.01
1.68437	100.00
1.70103	100.01
1.71770	100.00
1.73437	100.01
1.75103	100.00
1.76770	100.01
1.78437	100.01
1.80103	100.00
1.81770	100.00
1.83437	100.01
1.85103	100.00
1.86770	100.01
1.88437	100.00
1.90103	100.01
1.91770	100.00
1.93437	100.00
1.95103	100.01
1.96770	100.01
1.98437	100.00
2.00103	100.00
2.01770	100.00
2.03437	100.00
2.05103	100.00
2.06770	100.00
2.08437	100.00
2.10103	100.00
2.11770	100.00
2.13437	100.00
2.15103	100.00
2.16770	99.99
2.18437	99.99
2.20103	100.00
2.21770	99.99
2.23437	99.99
2.25103	99.99
2.26770	99.99
2.28437	99.99
2.30103	99.99
2.31770	99.99
2.33437	99.99
2.35103	99.99
2.36770	99.99
2.38437	99.99
2.40103	99.99
2.41770	99.99
2.43437	99.99
2.45103	99.99
2.46770	99.99
2.48437	99.99
2.50103	99.99
2.51770	99.99
2.53437	99.99
2.55103	99.99
2.56770	99.99
2.58437	99.99
2.60103	99.99
2.61770	99.99
2.63437	99.99
2.65103	99.99
2.66770	99.99
2.68437	99.99
2.70103	99.99
2.71770	100.00
2.73437	100.00
2.75103	100.00
2.76770	100.00
2.78437	100.00
2.80103	100.00
2.81770	100.00
2.83437	100.00
2.85103	100.01
2.86770	100.01
2.88437	100.01
2.90103	100.01
2.91770	100.01
2.93437	100.01
2.95103	100.02
2.96770	100.02
2.98437	100.02
3.00103	100.02
3.01770	100.02
3.03437	100.03
3.05103	100.03
3.06770	100.03
3.08437	100.03
3.10103	100.03
3.11770	100.04
3.13437	100.04
3.15103	100.04
3.16770	100.04
3.18437	100.05
3.20103	100.05
3.21770	100.04
3.23437	100.05
3.25103	100.05
3.26770	100.05
3.28437	100.05
3.30103	100.05
3.31770	100.06
3.33437	100.06
3.35103	100.06
3.36770	100.06
3.38437	100.06
3.40103	100.06
3.41770	100.06
3.43437	100.07
3.45103	100.07
3.46770	100.07
3.48437	100.07
3.50103	100.07
3.51770	100.07
3.53437	100.07
3.55103	100.07
3.56770	100.07
3.58437	100.07
3.60103	100.07
3.61770	100.07
3.63437	100.07
3.65103	100.08
3.66770	100.08
3.68437	100.07
3.70103	100.07
3.71770	100.08
3.73437	100.08
3.75103	100.07
3.76770	100.08
3.78437	100.07
3.80103	100.07
3.81770	100.07
3.83437	100.07
3.85103	100.07
3.86770	100.07
3.88437	100.07
3.90103	100.07
3.91770	100.07
3.93437	100.07
3.95103	100.07
3.96770	100.07
3.98437	100.07

[Status Trace (Carrier Gas Pressure)]
Interval(msec)	1000
# of Points	240
Start Time(min)	0.001
End Time(min)	3.984
Intensity Units	
Intensity Multiplier	1
R.Time (min)	Intensity
0.00103	58.00
0.01770	56.95
0.03437	57.17
0.05103	59.14
0.06770	58.47
0.08437	57.97
0.10103	58.00
0.11770	58.01
0.13437	58.00
0.15103	58.00
0.16770	58.00
0.18437	58.00
0.20103	58.00
0.21770	58.00
0.23437	58.00
0.25103	58.00
0.26770	58.00
0.28437	58.00
0.30103	58.00
0.31770	58.00
0.33437	58.00
0.35103	58.00
0.36770	58.00
0.38437	58.00
0.40103	58.00
0.41770	58.00
0.43437	58.00
0.45103	58.00
0.46770	58.00
0.48437	58.00
0.50103	58.00
0.51770	58.00
0.53437	58.00
0.55103	58.00
0.56770	58.00
0.58437	58.00
0.60103	58.00
0.61770	58.00
0.63437	58.00
0.65103	58.00
0.66770	58.00
0.68437	58.00
0.70103	58.00
0.71770	58.00
0.73437	58.00
0.75103	58.00
0.76770	58.00
0.78437	58.00
0.80103	58.00
0.81770	58.00
0.83437	58.00
0.85103	58.00
0.86770	58.00
0.88437	58.00
0.90103	58.00
0.91770	58.00
0.93437	58.00
0.95103	58.00
0.96770	58.00
0.98437	58.00
1.00103	58.00
1.01770	58.00
1.03437	58.00
1.05103	58.00
1.06770	58.00
1.08437	58.00
1.10103	58.00
1.11770	58.00
1.13437	58.00
1.15103	58.00
1.16770	58.00
1.18437	58.00
1.20103	58.00
1.21770	58.00
1.23437	58.00
1.25103	58.00
1.26770	58.00
1.28437	58.00
1.30103	58.00
1.31770	58.00
1.33437	58.00
1.35103	58.00
1.36770	58.00
1.38437	58.00
1.40103	58.00
1.41770	58.00
1.43437	58.00
1.45103	58.00
1.46770	58.00
1.48437	58.00
1.50103	58.00
1.51770	58.00
1.53437	58.00
1.55103	58.00
1.56770	58.00
1.58437	58.00
1.60103	58.00
1.61770	58.00
1.63437	58.01
1.65103	58.00
1.66770	58.00
1.68437	58.01
1.70103	58.00
1.71770	58.00
1.73437	58.00
1.75103	58.00
1.76770	58.00
1.78437	58.00
1.80103	58.00
1.81770	58.00
1.83437	58.00
1.85103	58.00
1.86770	58.00
1.88437	58.00
1.90103	58.00
1.91770	58.00
1.93437	58.00
1.95103	58.00
1.96770	58.00
1.98437	58.00
2.00103	58.00
2.01770	58.00
2.03437	58.00
2.05103	58.00
2.06770	58.00
2.08437	58.00
2.10103	58.00
2.11770	58.00
2.13437	58.00
2.15103	58.00
2.16770	58.00
2.18437	58.00
2.20103	58.00
2.21770	58.00
2.23437	58.00
2.25103	58.00
2.26770	58.00
2.28437	58.00
2.30103	58.00
2.31770	58.00
2.33437	58.00
2.35103	58.00
2.36770	58.00
2.38437	57.99
2.40103	57.99
2.41770	58.00
2.43437	58.00
2.45103	58.00
2.46770	58.00
2.48437	58.00
2.50103	58.00
2.51770	57.95
2.53437	57.98
2.55103	58.01
2.56770	58.00
2.58437	58.00
2.60103	58.00
2.61770	58.00
2.63437	58.00
2.65103	58.00
2.66770	58.00
2.68437	58.00
2.70103	58.00
2.71770	58.00
2.73437	58.00
2.75103	58.00
2.76770	58.00
2.78437	58.00
2.80103	58.00
2.81770	58.00
2.83437	58.00
2.85103	58.00
2.86770	58.00
2.88437	58.00
2.90103	58.00
2.91770	58.00
2.93437	58.00
2.95103	58.00
2.96770	58.00
2.98437	58.00
3.00103	58.00
3.01770	58.00
3.03437	58.00
3.05103	58.00
3.06770	58.00
3.08437	58.00
3.10103	58.00
3.11770	58.00
3.13437	58.00
3.15103	58.00
3.16770	58.00
3.18437	58.00
3.20103	58.00
3.21770	58.00
3.23437	58.00
3.25103	58.00
3.26770	58.00
3.28437	58.00
3.30103	58.00
3.31770	58.00
3.33437	58.00
3.35103	58.00
3.36770	58.00
3.38437	58.00
3.40103	58.00
3.41770	58.00
3.43437	58.00
3.45103	58.00
3.46770	58.00
3.48437	58.00
3.50103	58.00
3.51770	58.00
3.53437	58.00
3.55103	58.00
3.56770	58.00
3.58437	58.00
3.60103	58.00
3.61770	58.00
3.63437	58.00
3.65103	58.00
3.66770	58.00
3.68437	58.00
3.70103	58.00
3.71770	58.00
3.73437	58.00
3.75103	58.00
3.76770	58.00
3.78437	58.00
3.80103	58.00
3.81770	58.00
3.83437	58.00
3.85103	58.00
3.86770	58.00
3.88437	58.00
3.90103	58.00
3.91770	58.00
3.93437	58.00
3.95103	58.00
3.96770	58.00
3.98437	58.00

[Status Trace (Carrier Gas Flow)]
Interval(msec)	1000
# of Points	240
Start Time(min)	0.001
End Time(min)	3.984
Intensity Units	
Intensity Multiplier	1
R.Time (min)	Intensity
0.00103	34.52
0.01770	34.28
0.03437	34.54
0.05103	34.52
0.06770	34.51
0.08437	34.52
0.10103	34.52
0.11770	34.52
0.13437	34.52
0.15103	34.51
0.16770	34.51
0.18437	34.52
0.20103	34.52
0.21770	34.52
0.23437	34.52
0.25103	34.51
0.26770	34.52
0.28437	34.52
0.30103	34.51
0.31770	34.52
0.33437	34.52
0.35103	34.52
0.36770	34.52
0.38437	34.52
0.40103	34.51
0.41770	34.52
0.43437	34.51
0.45103	34.52
0.46770	34.52
0.48437	34.52
0.50103	34.51
0.51770	34.52
0.53437	34.52
0.55103	34.52
0.56770	34.52
0.58437	34.52
0.60103	34.52
0.61770	34.52
0.63437	34.52
0.65103	34.52
0.66770	34.52
0.68437	34.52
0.70103	34.52
0.71770	34.51
0.73437	34.51
0.75103	34.52
0.76770	34.52
0.78437	34.52
0.80103	34.52
0.81770	34.52
0.83437	34.52
0.85103	34.52
0.86770	34.52
0.88437	34.52
0.90103	34.52
0.91770	34.52
0.93437	34.52
0.95103	34.52
0.96770	34.51
0.98437	34.52
1.00103	34.52
1.01770	34.52
1.03437	34.52
1.05103	34.52
1.06770	34.52
1.08437	34.52
1.10103	34.52
1.11770	34.51
1.13437	34.52
1.15103	34.52
1.16770	34.52
1.18437	34.52
1.20103	34.52
1.21770	34.52
1.23437	34.52
1.25103	34.52
1.26770	34.51
1.28437	34.52
1.30103	34.52
1.31770	34.52
1.33437	34.52
1.35103	34.51
1.36770	34.52
1.38437	34.51
1.40103	34.52
1.41770	34.52
1.43437	34.52
1.45103	34.52
1.46770	34.52
1.48437	34.52
1.50103	34.51
1.51770	34.52
1.53437	34.52
1.55103	34.52
1.56770	34.52
1.58437	34.52
1.60103	34.52
1.61770	34.52
1.63437	34.52
1.65103	34.51
1.66770	34.52
1.68437	34.52
1.70103	34.52
1.71770	34.52
1.73437	34.51
1.75103	34.52
1.76770	34.52
1.78437	34.52
1.80103	34.52
1.81770	34.52
1.83437	34.52
1.85103	34.52
1.86770	34.52
1.88437	34.52
1.90103	34.52
1.91770	34.52
1.93437	34.52
1.95103	34.52
1.96770	34.52
1.98437	34.52
2.00103	34.53
2.01770	34.52
2.03437	34.52
2.05103	34.52
2.06770	34.52
2.08437	34.52
2.10103	34.52
2.11770	34.51
2.13437	34.52
2.15103	34.52
2.16770	34.51
2.18437	34.52
2.20103	34.52
2.21770	34.52
2.23437	34.52
2.25103	34.52
2.26770	34.52
2.28437	34.52
2.30103	34.51
2.31770	34.52
2.33437	34.52
2.35103	34.52
2.36770	34.52
2.38437	34.51
2.40103	34.52
2.41770	34.52
2.43437	34.52
2.45103	34.52
2.46770	34.52
2.48437	34.52
2.50103	34.52
2.51770	34.52
2.53437	34.52
2.55103	34.51
2.56770	34.52
2.58437	34.52
2.60103	34.52
2.61770	34.52
2.63437	34.51
2.65103	34.51
2.66770	34.52
2.68437	34.52
2.70103	34.52
2.71770	34.52
2.73437	34.51
2.75103	34.52
2.76770	34.52
2.78437	34.52
2.80103	34.52
2.81770	34.52
2.83437	34.52
2.85103	34.52
2.86770	34.52
2.88437	34.52
2.90103	34.52
2.91770	34.52
2.93437	34.52
2.95103	34.52
2.96770	34.52
2.98437	34.52
3.00103	34.52
3.01770	34.52
3.03437	34.52
3.05103	34.52
3.06770	34.52
3.08437	34.52
3.10103	34.52
3.11770	34.52
3.13437	34.52
3.15103	34.52
3.16770	34.52
3.18437	34.52
3.20103	34.52
3.21770	34.52
3.23437	34.52
3.25103	34.52
3.26770	34.52
3.28437	34.51
3.30103	34.52
3.31770	34.52
3.33437	34.52
3.35103	34.52
3.36770	34.52
3.38437	34.52
3.40103	34.52
3.41770	34.52
3.43437	34.52
3.45103	34.52
3.46770	34.52
3.48437	34.52
3.50103	34.52
3.51770	34.52
3.53437	34.52
3.55103	34.52
3.56770	34.52
3.58437	34.52
3.60103	34.52
3.61770	34.52
3.63437	34.52
3.65103	34.52
3.66770	34.51
3.68437	34.51
3.70103	34.52
3.71770	34.52
3.73437	34.52
3.75103	34.51
3.76770	34.52
3.78437	34.52
3.80103	34.52
3.81770	34.52
3.83437	34.52
3.85103	34.52
3.86770	34.52
3.88437	34.52
3.90103	34.52
3.91770	34.52
3.93437	34.52
3.95103	34.52
3.96770	34.52
3.98437	34.51

[Status Trace (Column Flow)]
Interval(msec)	1000
# of Points	240
Start Time(min)	0.001
End Time(min)	3.984
Intensity Units	
Intensity Multiplier	1
R.Time (min)	Intensity
0.00103	5.52
0.01770	5.40
0.03437	5.42
0.05103	5.65
0.06770	5.58
0.08437	5.52
0.10103	5.52
0.11770	5.52
0.13437	5.52
0.15103	5.52
0.16770	5.52
0.18437	5.52
0.20103	5.52
0.21770	5.52
0.23437	5.52
0.25103	5.52
0.26770	5.52
0.28437	5.52
0.30103	5.52
0.31770	5.52
0.33437	5.52
0.35103	5.52
0.36770	5.52
0.38437	5.52
0.40103	5.52
0.41770	5.52
0.43437	5.52
0.45103	5.52
0.46770	5.52
0.48437	5.52
0.50103	5.52
0.51770	5.52
0.53437	5.52
0.55103	5.52
0.56770	5.52
0.58437	5.52
0.60103	5.52
0.61770	5.52
0.63437	5.52
0.65103	5.52
0.66770	5.52
0.68437	5.52
0.70103	5.52
0.71770	5.52
0.73437	5.52
0.75103	5.52
0.76770	5.52
0.78437	5.52
0.80103	5.52
0.81770	5.52
0.83437	5.52
0.85103	5.52
0.86770	5.52
0.88437	5.52
0.90103	5.52
0.91770	5.52
0.93437	5.52
0.95103	5.52
0.96770	5.52
0.98437	5.52
1.00103	5.52
1.01770	5.52
1.03437	5.52
1.05103	5.52
1.06770	5.52
1.08437	5.52
1.10103	5.52
1.11770	5.52
1.13437	5.52
1.15103	5.52
1.16770	5.52
1.18437	5.52
1.20103	5.52
1.21770	5.52
1.23437	5.52
1.25103	5.52
1.26770	5.52
1.28437	5.52
1.30103	5.52
1.31770	5.52
1.33437	5.52
1.35103	5.52
1.36770	5.52
1.38437	5.52
1.40103	5.52
1.41770	5.52
1.43437	5.52
1.45103	5.52
1.46770	5.52
1.48437	5.52
1.50103	5.52
1.51770	5.52
1.53437	5.52
1.55103	5.52
1.56770	5.52
1.58437	5.52
1.60103	5.52
1.61770	5.52
1.63437	5.51
1.65103	5.50
1.66770	5.50
1.68437	5.48
1.70103	5.47
1.71770	5.46
1.73437	5.45
1.75103	5.44
1.76770	5.43
1.78437	5.42
1.80103	5.41
1.81770	5.40
1.83437	5.39
1.85103	5.38
1.86770	5.37
1.88437	5.36
1.90103	5.35
1.91770	5.34
1.93437	5.33
1.95103	5.32
1.96770	5.31
1.98437	5.30
2.00103	5.29
2.01770	5.28
2.03437	5.27
2.05103	5.26
2.06770	5.25
2.08437	5.24
2.10103	5.23
2.11770	5.23
2.13437	5.22
2.15103	5.21
2.16770	5.20
2.18437	5.19
2.20103	5.18
2.21770	5.17
2.23437	5.16
2.25103	5.15
2.26770	5.14
2.28437	5.13
2.30103	5.12
2.31770	5.11
2.33437	5.10
2.35103	5.10
2.36770	5.09
2.38437	5.09
2.40103	5.09
2.41770	5.09
2.43437	5.09
2.45103	5.09
2.46770	5.09
2.48437	5.08
2.50103	5.08
2.51770	5.08
2.53437	5.08
2.55103	5.08
2.56770	5.08
2.58437	5.08
2.60103	5.08
2.61770	5.08
2.63437	5.08
2.65103	5.08
2.66770	5.08
2.68437	5.08
2.70103	5.08
2.71770	5.08
2.73437	5.08
2.75103	5.08
2.76770	5.08
2.78437	5.08
2.80103	5.08
2.81770	5.08
2.83437	5.08
2.85103	5.08
2.86770	5.08
2.88437	5.08
2.90103	5.08
2.91770	5.08
2.93437	5.08
2.95103	5.08
2.96770	5.08
2.98437	5.08
3.00103	5.08
3.01770	5.08
3.03437	5.08
3.05103	5.08
3.06770	5.08
3.08437	5.08
3.10103	5.08
3.11770	5.08
3.13437	5.08
3.15103	5.08
3.16770	5.08
3.18437	5.08
3.20103	5.08
3.21770	5.08
3.23437	5.08
3.25103	5.08
3.26770	5.08
3.28437	5.08
3.30103	5.08
3.31770	5.08
3.33437	5.07
3.35103	5.07
3.36770	5.07
3.38437	5.07
3.40103	5.08
3.41770	5.08
3.43437	5.08
3.45103	5.08
3.46770	5.08
3.48437	5.08
3.50103	5.08
3.51770	5.08
3.53437	5.08
3.55103	5.08
3.56770	5.08
3.58437	5.08
3.60103	5.08
3.61770	5.08
3.63437	5.08
3.65103	5.08
3.66770	5.08
3.68437	5.08
3.70103	5.08
3.71770	5.08
3.73437	5.08
3.75103	5.08
3.76770	5.08
3.78437	5.08
3.80103	5.08
3.81770	5.08
3.83437	5.08
3.85103	5.08
3.86770	5.08
3.88437	5.08
3.90103	5.08
3.91770	5.08
3.93437	5.08
3.95103	5.08
3.96770	5.08
3.98437	5.08

[Status Trace (Linear Velocity)]
Interval(msec)	1000
# of Points	240
Start Time(min)	0.001
End Time(min)	3.984
Intensity Units	
Intensity Multiplier	1
R.Time (min)	Intensity
0.00103	39.02
0.01770	38.33
0.03437	38.47
0.05103	39.77
0.06770	39.33
0.08437	39.00
0.10103	39.01
0.11770	39.02
0.13437	39.02
0.15103	39.02
0.16770	39.02
0.18437	39.02
0.20103	39.02
0.21770	39.02
0.23437	39.02
0.25103	39.02
0.26770	39.02
0.28437	39.02
0.30103	39.02
0.31770	39.02
0.33437	39.02
0.35103	39.02
0.36770	39.02
0.38437	39.02
0.40103	39.02
0.41770	39.02
0.43437	39.02
0.45103	39.02
0.46770	39.02
0.48437	39.02
0.50103	39.02
0.51770	39.02
0.53437	39.02
0.55103	39.02
0.56770	39.01
0.58437	39.02
0.60103	39.01
0.61770	39.01
0.63437	39.01
0.65103	39.02
0.66770	39.02
0.68437	39.02
0.70103	39.02
0.71770	39.02
0.73437	39.02
0.75103	39.02
0.76770	39.02
0.78437	39.02
0.80103	39.02
0.81770	39.02
0.83437	39.02
0.85103	39.01
0.86770	39.01
0.88437	39.01
0.90103	39.01
0.91770	39.02
0.93437	39.02
0.95103	39.02
0.96770	39.02
0.98437	39.02
1.00103	39.02
1.01770	39.02
1.03437	39.02
1.05103	39.02
1.06770	39.02
1.08437	39.02
1.10103	39.02
1.11770	39.02
1.13437	39.02
1.15103	39.02
1.16770	39.02
1.18437	39.02
1.20103	39.02
1.21770	39.02
1.23437	39.02
1.25103	39.02
1.26770	39.02
1.28437	39.02
1.30103	39.02
1.31770	39.02
1.33437	39.02
1.35103	39.02
1.36770	39.02
1.38437	39.02
1.40103	39.02
1.41770	39.02
1.43437	39.02
1.45103	39.02
1.46770	39.02
1.48437	39.02
1.50103	39.02
1.51770	39.02
1.53437	39.02
1.55103	39.02
1.56770	39.02
1.58437	39.02
1.60103	39.01
1.61770	39.01
1.63437	38.99
1.65103	38.97
1.66770	38.94
1.68437	38.91
1.70103	38.87
1.71770	38.84
1.73437	38.81
1.75103	38.77
1.76770	38.74
1.78437	38.71
1.80103	38.68
1.81770	38.65
1.83437	38.62
1.85103	38.59
1.86770	38.56
1.88437	38.52
1.90103	38.49
1.91770	38.46
1.93437	38.43
1.95103	38.40
1.96770	38.37
1.98437	38.34
2.00103	38.31
2.01770	38.28
2.03437	38.25
2.05103	38.22
2.06770	38.19
2.08437	38.16
2.10103	38.13
2.11770	38.10
2.13437	38.07
2.15103	38.04
2.16770	38.01
2.18437	37.98
2.20103	37.95
2.21770	37.92
2.23437	37.89
2.25103	37.86
2.26770	37.83
2.28437	37.81
2.30103	37.78
2.31770	37.75
2.33437	37.72
2.35103	37.69
2.36770	37.67
2.38437	37.66
2.40103	37.66
2.41770	37.66
2.43437	37.66
2.45103	37.66
2.46770	37.66
2.48437	37.66
2.50103	37.66
2.51770	37.62
2.53437	37.64
2.55103	37.66
2.56770	37.65
2.58437	37.65
2.60103	37.65
2.61770	37.65
2.63437	37.65
2.65103	37.65
2.66770	37.65
2.68437	37.65
2.70103	37.65
2.71770	37.65
2.73437	37.65
2.75103	37.65
2.76770	37.64
2.78437	37.64
2.80103	37.64
2.81770	37.64
2.83437	37.64
2.85103	37.64
2.86770	37.64
2.88437	37.64
2.90103	37.64
2.91770	37.64
2.93437	37.64
2.95103	37.64
2.96770	37.64
2.98437	37.64
3.00103	37.64
3.01770	37.63
3.03437	37.63
3.05103	37.63
3.06770	37.63
3.08437	37.63
3.10103	37.63
3.11770	37.63
3.13437	37.63
3.15103	37.63
3.16770	37.63
3.18437	37.63
3.20103	37.63
3.21770	37.63
3.23437	37.62
3.25103	37.62
3.26770	37.62
3.28437	37.62
3.30103	37.62
3.31770	37.62
3.33437	37.62
3.35103	37.62
3.36770	37.62
3.38437	37.62
3.40103	37.63
3.41770	37.63
3.43437	37.63
3.45103	37.63
3.46770	37.63
3.48437	37.63
3.50103	37.63
3.51770	37.63
3.53437	37.63
3.55103	37.63
3.56770	37.63
3.58437	37.63
3.60103	37.63
3.61770	37.63
3.63437	37.63
3.65103	37.63
3.66770	37.63
3.68437	37.63
3.70103	37.63
3.71770	37.63
3.73437	37.63
3.75103	37.63
3.76770	37.63
3.78437	37.63
3.80103	37.63
3.81770	37.63
3.83437	37.63
3.85103	37.63
3.86770	37.63
3.88437	37.63
3.90103	37.63
3.91770	37.63
3.93437	37.63
3.95103	37.63
3.96770	37.62
3.98437	37.62

