[Header]
Application Name	LabSolutions
Version	5.110
Data File Name	C:\Users\User\Desktop\GC Analyses\Jack\Nachusa Grasslands Sampling\T3 Timepoint July 12th\T3_07122022_006.gcd
Output Date	3/14/2023
Output Time	3:43:30 PM

[File Information]
Type	Data File
Generated	3/13/2023 3:02:09 PM
Generated by	System Administrator
Modified	3/13/2023 3:08:39 PM
Modified by	System Administrator

[Sample Information]
Operator Name	System Administrator
Acquired	3/13/2023 3:04:38 PM
Sample Type	0:Unknown
Level	0
Sample Name	006
Sample ID	006
ISTD Amount1	1
ISTD Amount2	1
ISTD Amount3	1
ISTD Amount4	1
ISTD Amount5	1
ISTD Amount6	1
ISTD Amount7	1
ISTD Amount8	1
ISTD Amount9	1
ISTD Amount10	1
ISTD Amount11	1
ISTD Amount12	1
ISTD Amount13	1
ISTD Amount14	1
ISTD Amount15	1
ISTD Amount16	1
ISTD Amount17	1
ISTD Amount18	1
ISTD Amount19	1
ISTD Amount20	1
ISTD Amount21	1
ISTD Amount22	1
ISTD Amount23	1
ISTD Amount24	1
ISTD Amount25	1
ISTD Amount26	1
ISTD Amount27	1
ISTD Amount28	1
ISTD Amount29	1
ISTD Amount30	1
ISTD Amount31	1
ISTD Amount32	1
Sample Amount	1
Dilution Factor	1
Vial#	5
Injection Volume	1
Injection Count	1
Bar Code	

[Original Files]
Data File	C:\Users\User\Desktop\GC Analyses\Jack\Nachusa Grasslands Sampling\T3 Timepoint July 12th\T3_07122022_006.gcd
Method File	C:\LabSolutions\Data\GHG_4min_2022\ghg3_togas_w_acet_4 min_new_int.gcm
Batch File	C:\LabSolutions\Data\AutoSamplerTesting\T3_07122022.gcb
Report Format File	c:\LabSolutions\System\DEFAULT.lsr

[File Description]


[Configuration]
Instrument Name	C0B7VH3-Instrument1
Instrument #	1
Line #	1
# of Detectors	3
Detector ID	DET#1	DET#2	DET#3
Detector Name	FID	PTCD	ECD
# of Channels	1	1	1

[Peak Table(Ch1)]
# of Peaks	3
Peak#	R.Time	I.Time	F.Time	Area	Height	A/H	Conc.	Mark	ID#	Name	k'	Plate #	Plate Ht.	Tailing	Resolution	Sep.Factor	Area Ratio	Height Ratio	Conc. %	Norm Conc.
1	1.476	1.439	1.531	29158	14293	2.040	205.857	   	1	CO	0.000	9467	15.845	1.214	0.000	0.000	0	0	20.617	20.617
2	1.571	1.542	1.608	3496	1874	1.866	67.604	   	2	CH4	0.065	12874	11.651	1.117	1.643	0.000	0	0	6.771	6.771
3	2.000	1.952	2.356	2888767	1395909	2.069	725.002	   	3	CO2	0.355	17601	8.522	1.197	7.417	5.500	0	0	72.612	72.612

[Peak Table(Ch2)]
# of Peaks	0

[Peak Table(Ch3)]
# of Peaks	5
Peak#	R.Time	I.Time	F.Time	Area	Height	A/H	Conc.	Mark	ID#	Name	k'	Plate #	Plate Ht.	Tailing	Resolution	Sep.Factor	Area Ratio	Height Ratio	Conc. %	Norm Conc.
1	2.462	2.290	2.506	1741	494	3.521	0.000	   			0.000	9488	15.809	0.000	0.000	0.000	0	0	0.000	0.000
2	2.524	2.506	2.579	956	288	3.315	0.000	 V 			0.025	2800	53.578	0.000	0.427	0.000	0	0	0.000	0.000
3	2.601	2.579	2.671	480	157	3.067	0.000	 V 			0.057	952	157.558	0.000	0.292	2.235	0	0	0.000	0.000
4	2.880	2.697	3.056	17925	4681	3.829	0.458	   	1	N2O	0.170	13369	11.220	1.509	1.276	3.000	0	0	100.000	100.000
5	3.412	3.184	3.679	850	51	16.582	0.000	   	2	SF6	0.386	1018	147.396	1.055	2.016	2.272	0	0	0.000	0.000

[Compound Results(Ch1)]
# of IDs	6
ID#	Name	R.Time	Area	Height	Conc.	Curve	3rd	2nd	1st	Constant	Area Ratio	Height Ratio	Conc. %	Norm Conc.
1	CO	1.476	29158	14293	205.857	Linear	0.000000e+00	0.000000e+00	1.416423e+002	0.000000e+00	0	0	20.617	20.617
2	CH4	1.571	3496	1874	67.604	Linear	0.000000e+00	0.000000e+00	5.171738e+001	0.000000e+00	0	0	6.771	6.771
3	CO2	2.000	2888767	1395909	725.002	Linear	0.000000e+00	0.000000e+00	3.984494e+003	0.000000e+00	0	0	72.612	72.612
4	Ethylene	0.000	0	0	0.000	Linear	0.000000e+00	0.000000e+00	0.000000e+00	0.000000e+00	0	0	0.000	0.000
5	Acetylene	0.000	0	0	0.000	Linear	0.000000e+00	0.000000e+00	0.000000e+00	0.000000e+00	0	0	0.000	0.000
6	Ethane	0.000	0	0	0.000	Linear	0.000000e+00	0.000000e+00	0.000000e+00	0.000000e+00	0	0	0.000	0.000

[Compound Results(Ch2)]
# of IDs	5
ID#	Name	R.Time	Area	Height	Conc.	Curve	3rd	2nd	1st	Constant	Area Ratio	Height Ratio	Conc. %	Norm Conc.
1	Hydrogen	0.000	0	0	0.000	Linear	0.000000e+00	0.000000e+00	0.000000e+00	0.000000e+00	0	0	0.000	0.000
2	Oxygen	0.000	0	0	0.000	Linear	0.000000e+00	0.000000e+00	0.000000e+00	0.000000e+00	0	0	0.000	0.000
3	Nitrogen	0.000	0	0	0.000	Linear	0.000000e+00	0.000000e+00	0.000000e+00	0.000000e+00	0	0	0.000	0.000
4	Methane	0.000	0	0	0.000	Linear	0.000000e+00	0.000000e+00	0.000000e+00	0.000000e+00	0	0	0.000	0.000
5	Carbon Monoxide	0.000	0	0	0.000	Linear	0.000000e+00	0.000000e+00	0.000000e+00	0.000000e+00	0	0	0.000	0.000

[Compound Results(Ch3)]
# of IDs	2
ID#	Name	R.Time	Area	Height	Conc.	Curve	3rd	2nd	1st	Constant	Area Ratio	Height Ratio	Conc. %	Norm Conc.
1	N2O	2.880	17925	4681	0.458	Linear	0.000000e+00	0.000000e+00	3.915173e+004	0.000000e+00	0	0	100.000	100.000
2	SF6	3.412	850	51	0.000	Linear	0.000000e+00	0.000000e+00	0.000000e+00	0.000000e+00	0	0	0.000	0.000

[Group Results(Ch1)]
# of Groups	0

[Group Results(Ch2)]
# of Groups	0

[Group Results(Ch3)]
# of Groups	0

[Chromatogram (Ch1)]
Interval(msec)	220
# of Points	1091
Start Time(min)	0.002
End Time(min)	3.998
R.Time (min)	Intensity
0.00167	25
0.00533	21
0.00900	16
0.01267	13
0.01633	12
0.02000	6
0.02367	-4
0.02733	-15
0.03100	-17
0.03467	-14
0.03833	-9
0.04200	-1
0.04567	7
0.04933	16
0.05300	26
0.05667	35
0.06033	42
0.06400	42
0.06767	32
0.07133	16
0.07500	3
0.07867	-5
0.08233	-8
0.08600	-4
0.08967	4
0.09333	10
0.09700	9
0.10067	-1
0.10433	-6
0.10800	-7
0.11167	-8
0.11533	-10
0.11900	-10
0.12267	-7
0.12633	-4
0.13000	-5
0.13367	-4
0.13733	-4
0.14100	-0
0.14467	6
0.14833	9
0.15200	10
0.15567	9
0.15933	5
0.16300	6
0.16667	10
0.17033	8
0.17400	6
0.17767	6
0.18133	5
0.18500	1
0.18867	-3
0.19233	-3
0.19600	-3
0.19967	1
0.20333	9
0.20700	17
0.21067	24
0.21433	30
0.21800	30
0.22167	25
0.22533	19
0.22900	12
0.23267	5
0.23633	-4
0.24000	-9
0.24367	-14
0.24733	-12
0.25100	-8
0.25467	-8
0.25833	-5
0.26200	2
0.26567	4
0.26933	4
0.27300	3
0.27667	2
0.28033	3
0.28400	7
0.28767	12
0.29133	13
0.29500	13
0.29867	17
0.30233	17
0.30600	11
0.30967	7
0.31333	7
0.31700	4
0.32067	2
0.32433	-3
0.32800	-7
0.33167	-9
0.33533	-3
0.33900	10
0.34267	22
0.34633	29
0.35000	24
0.35367	8
0.35733	-6
0.36100	-12
0.36467	-12
0.36833	-11
0.37200	-7
0.37567	-7
0.37933	-4
0.38300	-3
0.38667	-4
0.39033	-4
0.39400	-2
0.39767	-8
0.40133	-9
0.40500	-4
0.40867	-2
0.41233	-4
0.41600	-5
0.41967	-5
0.42333	-5
0.42700	-0
0.43067	6
0.43433	9
0.43800	6
0.44167	-1
0.44533	-7
0.44900	-14
0.45267	-15
0.45633	-11
0.46000	-10
0.46367	-14
0.46733	-20
0.47100	-26
0.47467	-28
0.47833	-28
0.48200	-25
0.48567	-16
0.48933	-6
0.49300	-0
0.49667	2
0.50033	1
0.50400	-4
0.50767	-9
0.51133	-9
0.51500	-8
0.51867	-7
0.52233	-12
0.52600	-17
0.52967	-19
0.53333	-17
0.53700	-14
0.54067	-7
0.54433	8
0.54800	27
0.55167	42
0.55533	44
0.55900	30
0.56267	10
0.56633	-12
0.57000	-30
0.57367	-40
0.57733	-43
0.58100	-41
0.58467	-36
0.58833	-32
0.59200	-29
0.59567	-23
0.59933	-21
0.60300	-25
0.60667	-27
0.61033	-24
0.61400	-16
0.61767	-3
0.62133	10
0.62500	14
0.62867	10
0.63233	1
0.63600	-11
0.63967	-24
0.64333	-33
0.64700	-42
0.65067	-55
0.65433	-62
0.65800	-59
0.66167	-52
0.66533	-39
0.66900	-27
0.67267	-23
0.67633	-24
0.68000	-20
0.68367	-14
0.68733	-13
0.69100	-16
0.69467	-21
0.69833	-26
0.70200	-30
0.70567	-30
0.70933	-28
0.71300	-30
0.71667	-34
0.72033	-40
0.72400	-45
0.72767	-45
0.73133	-38
0.73500	-29
0.73867	-24
0.74233	-19
0.74600	-15
0.74967	-17
0.75333	-25
0.75700	-31
0.76067	-29
0.76433	-25
0.76800	-19
0.77167	-13
0.77533	-13
0.77900	-19
0.78267	-28
0.78633	-30
0.79000	-28
0.79367	-31
0.79733	-38
0.80100	-38
0.80467	-34
0.80833	-31
0.81200	-31
0.81567	-34
0.81933	-40
0.82300	-48
0.82667	-55
0.83033	-57
0.83400	-48
0.83767	-41
0.84133	-38
0.84500	-35
0.84867	-34
0.85233	-32
0.85600	-26
0.85967	-24
0.86333	-25
0.86700	-22
0.87067	-25
0.87433	-26
0.87800	-24
0.88167	-21
0.88533	-21
0.88900	-25
0.89267	-28
0.89633	-25
0.90000	-26
0.90367	-28
0.90733	-29
0.91100	-27
0.91467	-27
0.91833	-26
0.92200	-27
0.92567	-23
0.92933	-20
0.93300	-24
0.93667	-30
0.94033	-34
0.94400	-36
0.94767	-35
0.95133	-30
0.95500	-31
0.95867	-36
0.96233	-41
0.96600	-43
0.96967	-44
0.97333	-47
0.97700	-52
0.98067	-54
0.98433	-53
0.98800	-48
0.99167	-41
0.99533	-37
0.99900	-36
1.00267	-39
1.00633	-41
1.01000	-40
1.01367	-37
1.01733	-40
1.02100	-43
1.02467	-39
1.02833	-35
1.03200	-37
1.03567	-41
1.03933	-43
1.04300	-42
1.04667	-42
1.05033	-45
1.05400	-47
1.05767	-46
1.06133	-43
1.06500	-39
1.06867	-34
1.07233	-30
1.07600	-31
1.07967	-38
1.08333	-45
1.08700	-50
1.09067	-49
1.09433	-45
1.09800	-39
1.10167	-35
1.10533	-33
1.10900	-34
1.11267	-40
1.11633	-46
1.12000	-45
1.12367	-40
1.12733	-35
1.13100	-32
1.13467	-28
1.13833	-25
1.14200	-26
1.14567	-30
1.14933	-38
1.15300	-46
1.15667	-46
1.16033	-47
1.16400	-50
1.16767	-49
1.17133	-46
1.17500	-43
1.17867	-46
1.18233	-57
1.18600	-73
1.18967	-83
1.19333	-87
1.19700	-88
1.20067	-87
1.20433	-84
1.20800	-73
1.21167	-60
1.21533	-48
1.21900	-43
1.22267	-45
1.22633	-45
1.23000	-44
1.23367	-47
1.23733	-49
1.24100	-55
1.24467	-63
1.24833	-69
1.25200	-69
1.25567	-72
1.25933	-75
1.26300	-73
1.26667	-62
1.27033	-48
1.27400	-38
1.27767	-41
1.28133	-49
1.28500	-55
1.28867	-57
1.29233	-58
1.29600	-58
1.29967	-56
1.30333	-57
1.30700	-63
1.31067	-67
1.31433	-69
1.31800	-67
1.32167	-58
1.32533	-46
1.32900	-40
1.33267	-34
1.33633	-30
1.34000	-31
1.34367	-38
1.34733	-46
1.35100	-56
1.35467	-73
1.35833	-87
1.36200	-95
1.36567	-97
1.36933	-93
1.37300	-85
1.37667	-80
1.38033	-79
1.38400	-81
1.38767	-80
1.39133	-77
1.39500	-73
1.39867	-66
1.40233	-54
1.40600	-46
1.40967	-41
1.41333	-44
1.41700	-50
1.42067	-61
1.42433	-68
1.42800	-72
1.43167	-68
1.43533	-59
1.43900	-50
1.44267	-17
1.44633	154
1.45000	781
1.45367	2112
1.45733	4271
1.46100	6973
1.46467	9637
1.46833	11821
1.47200	13329
1.47567	14055
1.47933	13889
1.48300	12790
1.48667	10941
1.49033	8708
1.49400	6483
1.49767	4537
1.50133	2988
1.50500	1833
1.50867	1007
1.51233	430
1.51600	40
1.51967	-212
1.52333	-371
1.52700	-467
1.53067	-519
1.53433	-549
1.53800	-564
1.54167	-543
1.54533	-437
1.54900	-208
1.55267	148
1.55633	551
1.56000	917
1.56367	1202
1.56733	1384
1.57100	1445
1.57467	1362
1.57833	1148
1.58200	857
1.58567	560
1.58933	299
1.59300	92
1.59667	-62
1.60033	-168
1.60400	-238
1.60767	-286
1.61133	-316
1.61500	-329
1.61867	-328
1.62233	-318
1.62600	-311
1.62967	-312
1.63333	-317
1.63700	-323
1.64067	-325
1.64433	-325
1.64800	-326
1.65167	-325
1.65533	-321
1.65900	-316
1.66267	-317
1.66633	-323
1.67000	-331
1.67367	-335
1.67733	-337
1.68100	-338
1.68467	-333
1.68833	-323
1.69200	-309
1.69567	-291
1.69933	-272
1.70300	-263
1.70667	-261
1.71033	-261
1.71400	-262
1.71767	-261
1.72133	-262
1.72500	-268
1.72867	-273
1.73233	-284
1.73600	-298
1.73967	-304
1.74333	-299
1.74700	-292
1.75067	-290
1.75433	-285
1.75800	-271
1.76167	-253
1.76533	-241
1.76900	-239
1.77267	-247
1.77633	-260
1.78000	-274
1.78367	-288
1.78733	-290
1.79100	-284
1.79467	-279
1.79833	-278
1.80200	-275
1.80567	-271
1.80933	-267
1.81300	-266
1.81667	-268
1.82033	-270
1.82400	-260
1.82767	-242
1.83133	-227
1.83500	-217
1.83867	-212
1.84233	-212
1.84600	-215
1.84967	-222
1.85333	-233
1.85700	-239
1.86067	-246
1.86433	-251
1.86800	-249
1.87167	-243
1.87533	-241
1.87900	-244
1.88267	-245
1.88633	-245
1.89000	-251
1.89367	-259
1.89733	-263
1.90100	-260
1.90467	-255
1.90833	-250
1.91200	-242
1.91567	-231
1.91933	-223
1.92300	-218
1.92667	-221
1.93033	-229
1.93400	-235
1.93767	-232
1.94133	-222
1.94500	-215
1.94867	-212
1.95233	-209
1.95600	-146
1.95967	344
1.96333	3025
1.96700	14170
1.97067	49565
1.97433	135764
1.97800	296987
1.98167	531276
1.98533	803277
1.98900	1062677
1.99267	1264661
1.99633	1379829
2.00000	1395738
2.00367	1316520
2.00733	1162433
2.01100	965169
2.01467	758383
2.01833	568737
2.02200	411093
2.02567	289292
2.02933	200079
2.03300	137164
2.03667	93914
2.04033	64655
2.04400	45029
2.04767	31896
2.05133	23080
2.05500	17110
2.05867	13012
2.06233	10154
2.06600	8118
2.06967	6636
2.07333	5530
2.07700	4678
2.08067	4011
2.08433	3487
2.08800	3071
2.09167	2735
2.09533	2461
2.09900	2235
2.10267	2042
2.10633	1869
2.11000	1720
2.11367	1593
2.11733	1484
2.12100	1384
2.12467	1295
2.12833	1213
2.13200	1136
2.13567	1069
2.13933	1013
2.14300	961
2.14667	910
2.15033	861
2.15400	815
2.15767	780
2.16133	751
2.16500	723
2.16867	688
2.17233	651
2.17600	617
2.17967	588
2.18333	562
2.18700	539
2.19067	514
2.19433	491
2.19800	469
2.20167	448
2.20533	432
2.20900	418
2.21267	405
2.21633	397
2.22000	390
2.22367	376
2.22733	358
2.23100	340
2.23467	330
2.23833	326
2.24200	317
2.24567	305
2.24933	298
2.25300	294
2.25667	282
2.26033	263
2.26400	246
2.26767	237
2.27133	235
2.27500	237
2.27867	239
2.28233	235
2.28600	231
2.28967	231
2.29333	232
2.29700	228
2.30067	221
2.30433	213
2.30800	208
2.31167	201
2.31533	193
2.31900	185
2.32267	177
2.32633	171
2.33000	163
2.33367	151
2.33733	138
2.34100	127
2.34467	120
2.34833	116
2.35200	114
2.35567	111
2.35933	108
2.36300	103
2.36667	102
2.37033	102
2.37400	105
2.37767	112
2.38133	118
2.38500	122
2.38867	122
2.39233	122
2.39600	118
2.39967	107
2.40333	95
2.40700	81
2.41067	72
2.41433	70
2.41800	73
2.42167	78
2.42533	80
2.42900	77
2.43267	75
2.43633	75
2.44000	79
2.44367	80
2.44733	84
2.45100	86
2.45467	82
2.45833	74
2.46200	67
2.46567	66
2.46933	67
2.47300	62
2.47667	54
2.48033	50
2.48400	48
2.48767	49
2.49133	50
2.49500	49
2.49867	52
2.50233	56
2.50600	62
2.50967	66
2.51333	67
2.51700	64
2.52067	63
2.52433	60
2.52800	60
2.53167	63
2.53533	65
2.53900	58
2.54267	47
2.54633	42
2.55000	41
2.55367	41
2.55733	42
2.56100	42
2.56467	43
2.56833	43
2.57200	40
2.57567	41
2.57933	43
2.58300	44
2.58667	43
2.59033	40
2.59400	35
2.59767	26
2.60133	18
2.60500	12
2.60867	10
2.61233	10
2.61600	9
2.61967	9
2.62333	16
2.62700	22
2.63067	28
2.63433	36
2.63800	43
2.64167	51
2.64533	55
2.64900	54
2.65267	53
2.65633	51
2.66000	44
2.66367	34
2.66733	22
2.67100	10
2.67467	7
2.67833	14
2.68200	21
2.68567	24
2.68933	26
2.69300	27
2.69667	26
2.70033	26
2.70400	27
2.70767	26
2.71133	16
2.71500	14
2.71867	8
2.72233	2
2.72600	-1
2.72967	-0
2.73333	5
2.73700	9
2.74067	12
2.74433	14
2.74800	12
2.75167	9
2.75533	10
2.75900	13
2.76267	17
2.76633	20
2.77000	22
2.77367	26
2.77733	30
2.78100	31
2.78467	33
2.78833	32
2.79200	28
2.79567	22
2.79933	20
2.80300	20
2.80667	19
2.81033	20
2.81400	20
2.81767	20
2.82133	23
2.82500	30
2.82867	40
2.83233	48
2.83600	53
2.83967	54
2.84333	56
2.84700	58
2.85067	63
2.85433	69
2.85800	74
2.86167	76
2.86533	78
2.86900	75
2.87267	70
2.87633	67
2.88000	69
2.88367	69
2.88733	66
2.89100	64
2.89467	70
2.89833	83
2.90200	96
2.90567	105
2.90933	104
2.91300	96
2.91667	86
2.92033	82
2.92400	80
2.92767	78
2.93133	70
2.93500	60
2.93867	54
2.94233	53
2.94600	54
2.94967	55
2.95333	62
2.95700	76
2.96067	90
2.96433	99
2.96800	96
2.97167	83
2.97533	71
2.97900	63
2.98267	60
2.98633	56
2.99000	52
2.99367	53
2.99733	59
3.00100	68
3.00467	78
3.00833	84
3.01200	84
3.01567	83
3.01933	84
3.02300	86
3.02667	84
3.03033	81
3.03400	79
3.03767	83
3.04133	89
3.04500	94
3.04867	98
3.05233	95
3.05600	87
3.05967	81
3.06333	78
3.06700	74
3.07067	65
3.07433	59
3.07800	60
3.08167	64
3.08533	68
3.08900	71
3.09267	75
3.09633	78
3.10000	80
3.10367	78
3.10733	67
3.11100	53
3.11467	46
3.11833	47
3.12200	49
3.12567	55
3.12933	64
3.13300	72
3.13667	76
3.14033	74
3.14400	70
3.14767	65
3.15133	62
3.15500	58
3.15867	54
3.16233	50
3.16600	46
3.16967	41
3.17333	39
3.17700	44
3.18067	52
3.18433	57
3.18800	57
3.19167	57
3.19533	58
3.19900	57
3.20267	55
3.20633	50
3.21000	42
3.21367	37
3.21733	36
3.22100	41
3.22467	48
3.22833	49
3.23200	52
3.23567	55
3.23933	57
3.24300	58
3.24667	58
3.25033	59
3.25400	63
3.25767	67
3.26133	70
3.26500	71
3.26867	69
3.27233	66
3.27600	65
3.27967	62
3.28333	51
3.28700	41
3.29067	37
3.29433	37
3.29800	44
3.30167	50
3.30533	56
3.30900	67
3.31267	79
3.31633	79
3.32000	68
3.32367	56
3.32733	40
3.33100	27
3.33467	18
3.33833	17
3.34200	20
3.34567	25
3.34933	28
3.35300	31
3.35667	35
3.36033	42
3.36400	47
3.36767	42
3.37133	32
3.37500	20
3.37867	11
3.38233	7
3.38600	5
3.38967	8
3.39333	11
3.39700	9
3.40067	7
3.40433	5
3.40800	6
3.41167	9
3.41533	14
3.41900	24
3.42267	32
3.42633	39
3.43000	45
3.43367	47
3.43733	43
3.44100	38
3.44467	33
3.44833	28
3.45200	23
3.45567	22
3.45933	26
3.46300	30
3.46667	27
3.47033	21
3.47400	14
3.47767	18
3.48133	20
3.48500	20
3.48867	23
3.49233	26
3.49600	27
3.49967	28
3.50333	31
3.50700	33
3.51067	33
3.51433	32
3.51800	26
3.52167	19
3.52533	13
3.52900	12
3.53267	13
3.53633	16
3.54000	21
3.54367	26
3.54733	28
3.55100	30
3.55467	30
3.55833	25
3.56200	21
3.56567	20
3.56933	23
3.57300	26
3.57667	26
3.58033	23
3.58400	21
3.58767	19
3.59133	17
3.59500	16
3.59867	20
3.60233	27
3.60600	25
3.60967	18
3.61333	13
3.61700	10
3.62067	17
3.62433	23
3.62800	26
3.63167	28
3.63533	23
3.63900	16
3.64267	12
3.64633	20
3.65000	27
3.65367	32
3.65733	36
3.66100	32
3.66467	19
3.66833	6
3.67200	-10
3.67567	-18
3.67933	-19
3.68300	-16
3.68667	-12
3.69033	-9
3.69400	-4
3.69767	-2
3.70133	-2
3.70500	-5
3.70867	-3
3.71233	-0
3.71600	-0
3.71967	-7
3.72333	-9
3.72700	-6
3.73067	1
3.73433	8
3.73800	13
3.74167	12
3.74533	6
3.74900	-5
3.75267	-14
3.75633	-19
3.76000	-24
3.76367	-28
3.76733	-24
3.77100	-22
3.77467	-18
3.77833	-12
3.78200	-6
3.78567	3
3.78933	9
3.79300	14
3.79667	15
3.80033	15
3.80400	18
3.80767	18
3.81133	11
3.81500	-5
3.81867	-17
3.82233	-25
3.82600	-29
3.82967	-28
3.83333	-22
3.83700	-10
3.84067	2
3.84433	4
3.84800	-2
3.85167	-8
3.85533	-14
3.85900	-17
3.86267	-19
3.86633	-19
3.87000	-18
3.87367	-16
3.87733	-12
3.88100	-10
3.88467	-14
3.88833	-20
3.89200	-25
3.89567	-25
3.89933	-18
3.90300	-7
3.90667	6
3.91033	14
3.91400	20
3.91767	19
3.92133	10
3.92500	-3
3.92867	-21
3.93233	-34
3.93600	-42
3.93967	-44
3.94333	-39
3.94700	-31
3.95067	-26
3.95433	-23
3.95800	-18
3.96167	-14
3.96533	-9
3.96900	-10
3.97267	-18
3.97633	-26
3.98000	-34
3.98367	-41
3.98733	-42
3.99100	-40
3.99467	-40
3.99833	-39

[Chromatogram (Ch2)]
Interval(msec)	220
# of Points	1091
Start Time(min)	0.002
End Time(min)	3.998
R.Time (min)	Intensity
0.00167	-1
0.00533	-1
0.00900	-0
0.01267	-0
0.01633	-0
0.02000	0
0.02367	0
0.02733	0
0.03100	0
0.03467	0
0.03833	0
0.04200	-0
0.04567	-0
0.04933	-1
0.05300	-1
0.05667	-1
0.06033	-1
0.06400	-2
0.06767	-2
0.07133	-3
0.07500	-3
0.07867	-3
0.08233	-4
0.08600	-4
0.08967	-5
0.09333	-5
0.09700	-5
0.10067	-5
0.10433	-5
0.10800	-4
0.11167	-4
0.11533	-4
0.11900	-4
0.12267	-4
0.12633	-4
0.13000	-4
0.13367	-4
0.13733	-4
0.14100	-4
0.14467	-4
0.14833	-4
0.15200	-4
0.15567	-4
0.15933	-4
0.16300	-4
0.16667	-4
0.17033	-4
0.17400	-4
0.17767	-3
0.18133	-3
0.18500	-3
0.18867	-2
0.19233	-2
0.19600	-2
0.19967	-2
0.20333	-2
0.20700	-2
0.21067	-2
0.21433	-2
0.21800	-2
0.22167	-2
0.22533	-2
0.22900	-2
0.23267	-2
0.23633	-2
0.24000	-2
0.24367	-2
0.24733	-2
0.25100	-2
0.25467	-2
0.25833	-2
0.26200	-1
0.26567	-1
0.26933	-1
0.27300	-1
0.27667	-1
0.28033	-0
0.28400	-0
0.28767	0
0.29133	0
0.29500	0
0.29867	0
0.30233	1
0.30600	1
0.30967	1
0.31333	1
0.31700	1
0.32067	0
0.32433	-0
0.32800	-0
0.33167	-0
0.33533	-1
0.33900	-1
0.34267	-1
0.34633	-1
0.35000	-1
0.35367	-1
0.35733	-1
0.36100	-1
0.36467	-1
0.36833	-1
0.37200	-2
0.37567	-1
0.37933	-1
0.38300	-1
0.38667	-1
0.39033	-1
0.39400	-1
0.39767	-1
0.40133	-1
0.40500	-1
0.40867	-1
0.41233	-1
0.41600	-1
0.41967	-2
0.42333	-2
0.42700	-2
0.43067	-2
0.43433	-2
0.43800	-2
0.44167	-2
0.44533	-2
0.44900	-2
0.45267	-2
0.45633	-2
0.46000	-3
0.46367	-3
0.46733	-3
0.47100	-3
0.47467	-3
0.47833	-4
0.48200	-4
0.48567	-4
0.48933	-4
0.49300	-4
0.49667	-3
0.50033	-3
0.50400	-3
0.50767	-2
0.51133	-2
0.51500	-2
0.51867	-2
0.52233	-2
0.52600	-2
0.52967	-2
0.53333	-2
0.53700	-2
0.54067	-2
0.54433	-1
0.54800	-1
0.55167	-1
0.55533	-0
0.55900	-0
0.56267	-0
0.56633	-1
0.57000	-1
0.57367	-2
0.57733	-2
0.58100	-2
0.58467	-3
0.58833	-2
0.59200	-2
0.59567	-2
0.59933	-2
0.60300	-2
0.60667	-1
0.61033	-1
0.61400	-2
0.61767	-2
0.62133	-2
0.62500	-2
0.62867	-3
0.63233	-3
0.63600	-3
0.63967	-3
0.64333	-3
0.64700	-3
0.65067	-3
0.65433	-3
0.65800	-3
0.66167	-3
0.66533	-3
0.66900	-3
0.67267	-2
0.67633	-2
0.68000	-2
0.68367	-2
0.68733	-2
0.69100	-1
0.69467	-1
0.69833	-1
0.70200	-0
0.70567	-0
0.70933	-1
0.71300	-1
0.71667	-1
0.72033	-1
0.72400	-1
0.72767	-1
0.73133	-2
0.73500	-2
0.73867	-2
0.74233	-2
0.74600	-2
0.74967	-2
0.75333	-1
0.75700	-1
0.76067	-1
0.76433	-1
0.76800	-1
0.77167	-0
0.77533	-0
0.77900	-0
0.78267	0
0.78633	0
0.79000	0
0.79367	0
0.79733	0
0.80100	0
0.80467	0
0.80833	0
0.81200	-0
0.81567	-1
0.81933	-1
0.82300	-2
0.82667	-3
0.83033	-3
0.83400	-4
0.83767	-5
0.84133	-5
0.84500	-6
0.84867	-6
0.85233	-6
0.85600	-5
0.85967	-5
0.86333	-4
0.86700	-4
0.87067	-4
0.87433	-4
0.87800	-4
0.88167	-4
0.88533	-4
0.88900	-4
0.89267	-4
0.89633	-4
0.90000	-4
0.90367	-3
0.90733	-3
0.91100	-2
0.91467	-2
0.91833	-2
0.92200	-3
0.92567	-3
0.92933	-4
0.93300	-4
0.93667	-4
0.94033	-4
0.94400	-5
0.94767	-5
0.95133	-5
0.95500	-5
0.95867	-5
0.96233	-5
0.96600	-5
0.96967	-5
0.97333	-5
0.97700	-5
0.98067	-5
0.98433	-5
0.98800	-5
0.99167	-5
0.99533	-4
0.99900	-4
1.00267	-3
1.00633	-2
1.01000	-2
1.01367	-2
1.01733	-2
1.02100	-2
1.02467	-2
1.02833	-2
1.03200	-2
1.03567	-1
1.03933	-1
1.04300	-1
1.04667	-1
1.05033	-0
1.05400	-0
1.05767	0
1.06133	0
1.06500	0
1.06867	-0
1.07233	-0
1.07600	-0
1.07967	-0
1.08333	-1
1.08700	-1
1.09067	-2
1.09433	-3
1.09800	-3
1.10167	-4
1.10533	-4
1.10900	-5
1.11267	-5
1.11633	-5
1.12000	-5
1.12367	-5
1.12733	-5
1.13100	-5
1.13467	-5
1.13833	-4
1.14200	-4
1.14567	-4
1.14933	-3
1.15300	-3
1.15667	-3
1.16033	-3
1.16400	-3
1.16767	-3
1.17133	-3
1.17500	-3
1.17867	-3
1.18233	-4
1.18600	-4
1.18967	-4
1.19333	-4
1.19700	-4
1.20067	-4
1.20433	-4
1.20800	-4
1.21167	-4
1.21533	-4
1.21900	-4
1.22267	-4
1.22633	-4
1.23000	-4
1.23367	-4
1.23733	-4
1.24100	-5
1.24467	-5
1.24833	-5
1.25200	-5
1.25567	-5
1.25933	-5
1.26300	-5
1.26667	-5
1.27033	-5
1.27400	-5
1.27767	-5
1.28133	-5
1.28500	-5
1.28867	-5
1.29233	-5
1.29600	-5
1.29967	-5
1.30333	-5
1.30700	-4
1.31067	-3
1.31433	-3
1.31800	-2
1.32167	-2
1.32533	-1
1.32900	-1
1.33267	-1
1.33633	-1
1.34000	-1
1.34367	-0
1.34733	-0
1.35100	0
1.35467	0
1.35833	0
1.36200	-0
1.36567	-0
1.36933	-1
1.37300	-1
1.37667	-2
1.38033	-2
1.38400	-3
1.38767	-3
1.39133	-3
1.39500	-3
1.39867	-3
1.40233	-3
1.40600	-3
1.40967	-3
1.41333	-3
1.41700	-3
1.42067	-3
1.42433	-3
1.42800	-3
1.43167	-4
1.43533	-4
1.43900	-4
1.44267	-4
1.44633	-5
1.45000	-4
1.45367	-4
1.45733	-5
1.46100	-5
1.46467	-5
1.46833	-5
1.47200	-5
1.47567	-5
1.47933	-5
1.48300	-6
1.48667	-6
1.49033	-5
1.49400	-5
1.49767	-5
1.50133	-5
1.50500	-5
1.50867	-4
1.51233	-4
1.51600	-4
1.51967	-4
1.52333	-4
1.52700	-4
1.53067	-4
1.53433	-5
1.53800	-5
1.54167	-5
1.54533	-5
1.54900	-4
1.55267	-4
1.55633	-4
1.56000	-4
1.56367	-4
1.56733	-4
1.57100	-4
1.57467	-3
1.57833	-3
1.58200	-3
1.58567	-4
1.58933	-4
1.59300	-4
1.59667	-5
1.60033	-6
1.60400	-7
1.60767	-8
1.61133	-10
1.61500	-11
1.61867	-14
1.62233	-16
1.62600	-19
1.62967	-22
1.63333	-25
1.63700	-29
1.64067	-33
1.64433	-37
1.64800	-41
1.65167	-45
1.65533	-49
1.65900	-53
1.66267	-57
1.66633	-62
1.67000	-66
1.67367	-71
1.67733	-76
1.68100	-81
1.68467	-86
1.68833	-90
1.69200	-94
1.69567	-97
1.69933	-100
1.70300	-102
1.70667	-104
1.71033	-105
1.71400	-106
1.71767	-108
1.72133	-109
1.72500	-109
1.72867	-110
1.73233	-110
1.73600	-110
1.73967	-110
1.74333	-110
1.74700	-109
1.75067	-109
1.75433	-109
1.75800	-109
1.76167	-110
1.76533	-110
1.76900	-111
1.77267	-111
1.77633	-112
1.78000	-112
1.78367	-113
1.78733	-113
1.79100	-113
1.79467	-113
1.79833	-113
1.80200	-114
1.80567	-114
1.80933	-115
1.81300	-115
1.81667	-115
1.82033	-115
1.82400	-114
1.82767	-114
1.83133	-114
1.83500	-114
1.83867	-114
1.84233	-114
1.84600	-115
1.84967	-115
1.85333	-116
1.85700	-116
1.86067	-116
1.86433	-117
1.86800	-117
1.87167	-117
1.87533	-117
1.87900	-117
1.88267	-116
1.88633	-116
1.89000	-115
1.89367	-115
1.89733	-115
1.90100	-115
1.90467	-115
1.90833	-115
1.91200	-115
1.91567	-115
1.91933	-115
1.92300	-115
1.92667	-115
1.93033	-114
1.93400	-114
1.93767	-113
1.94133	-112
1.94500	-111
1.94867	-110
1.95233	-110
1.95600	-109
1.95967	-109
1.96333	-109
1.96700	-109
1.97067	-110
1.97433	-110
1.97800	-110
1.98167	-111
1.98533	-111
1.98900	-111
1.99267	-110
1.99633	-110
2.00000	-109
2.00367	-109
2.00733	-108
2.01100	-108
2.01467	-108
2.01833	-108
2.02200	-108
2.02567	-108
2.02933	-107
2.03300	-106
2.03667	-106
2.04033	-105
2.04400	-104
2.04767	-103
2.05133	-102
2.05500	-101
2.05867	-101
2.06233	-101
2.06600	-101
2.06967	-102
2.07333	-102
2.07700	-103
2.08067	-103
2.08433	-103
2.08800	-103
2.09167	-103
2.09533	-102
2.09900	-101
2.10267	-100
2.10633	-99
2.11000	-98
2.11367	-98
2.11733	-97
2.12100	-97
2.12467	-97
2.12833	-96
2.13200	-96
2.13567	-96
2.13933	-96
2.14300	-95
2.14667	-95
2.15033	-96
2.15400	-96
2.15767	-96
2.16133	-96
2.16500	-96
2.16867	-96
2.17233	-95
2.17600	-94
2.17967	-93
2.18333	-93
2.18700	-92
2.19067	-92
2.19433	-91
2.19800	-91
2.20167	-91
2.20533	-91
2.20900	-91
2.21267	-91
2.21633	-91
2.22000	-91
2.22367	-91
2.22733	-90
2.23100	-90
2.23467	-89
2.23833	-89
2.24200	-88
2.24567	-87
2.24933	-87
2.25300	-87
2.25667	-87
2.26033	-87
2.26400	-87
2.26767	-87
2.27133	-87
2.27500	-87
2.27867	-87
2.28233	-87
2.28600	-86
2.28967	-85
2.29333	-85
2.29700	-84
2.30067	-83
2.30433	-82
2.30800	-82
2.31167	-82
2.31533	-83
2.31900	-84
2.32267	-84
2.32633	-84
2.33000	-84
2.33367	-83
2.33733	-82
2.34100	-81
2.34467	-79
2.34833	-78
2.35200	-77
2.35567	-75
2.35933	-75
2.36300	-74
2.36667	-73
2.37033	-71
2.37400	-69
2.37767	-66
2.38133	-63
2.38500	-60
2.38867	-56
2.39233	-52
2.39600	-48
2.39967	-43
2.40333	-39
2.40700	-35
2.41067	-31
2.41433	-27
2.41800	-24
2.42167	-21
2.42533	-19
2.42900	-16
2.43267	-15
2.43633	-13
2.44000	-12
2.44367	-11
2.44733	-11
2.45100	-10
2.45467	-9
2.45833	-8
2.46200	-7
2.46567	-6
2.46933	-5
2.47300	-4
2.47667	-3
2.48033	-2
2.48400	-1
2.48767	-1
2.49133	-0
2.49500	0
2.49867	1
2.50233	2
2.50600	3
2.50967	4
2.51333	5
2.51700	6
2.52067	6
2.52433	7
2.52800	7
2.53167	8
2.53533	8
2.53900	8
2.54267	9
2.54633	9
2.55000	10
2.55367	10
2.55733	11
2.56100	11
2.56467	12
2.56833	12
2.57200	13
2.57567	13
2.57933	13
2.58300	13
2.58667	13
2.59033	14
2.59400	14
2.59767	14
2.60133	14
2.60500	14
2.60867	14
2.61233	14
2.61600	14
2.61967	14
2.62333	15
2.62700	15
2.63067	15
2.63433	14
2.63800	14
2.64167	14
2.64533	14
2.64900	14
2.65267	14
2.65633	14
2.66000	14
2.66367	15
2.66733	15
2.67100	16
2.67467	17
2.67833	17
2.68200	18
2.68567	19
2.68933	19
2.69300	20
2.69667	21
2.70033	21
2.70400	21
2.70767	22
2.71133	22
2.71500	22
2.71867	21
2.72233	21
2.72600	21
2.72967	21
2.73333	21
2.73700	21
2.74067	21
2.74433	21
2.74800	22
2.75167	22
2.75533	22
2.75900	23
2.76267	23
2.76633	24
2.77000	24
2.77367	24
2.77733	25
2.78100	25
2.78467	25
2.78833	24
2.79200	24
2.79567	24
2.79933	24
2.80300	24
2.80667	24
2.81033	24
2.81400	24
2.81767	24
2.82133	24
2.82500	24
2.82867	24
2.83233	24
2.83600	24
2.83967	24
2.84333	22
2.84700	20
2.85067	16
2.85433	9
2.85800	0
2.86167	-12
2.86533	-29
2.86900	-49
2.87267	-74
2.87633	-104
2.88000	-138
2.88367	-176
2.88733	-218
2.89100	-264
2.89467	-312
2.89833	-363
2.90200	-416
2.90567	-470
2.90933	-525
2.91300	-581
2.91667	-637
2.92033	-692
2.92400	-746
2.92767	-799
2.93133	-851
2.93500	-904
2.93867	-963
2.94233	-1021
2.94600	-1069
2.94967	-1097
2.95333	-1099
2.95700	-1076
2.96067	-1030
2.96433	-968
2.96800	-894
2.97167	-815
2.97533	-734
2.97900	-655
2.98267	-579
2.98633	-508
2.99000	-443
2.99367	-385
2.99733	-332
3.00100	-285
3.00467	-244
3.00833	-208
3.01200	-177
3.01567	-150
3.01933	-127
3.02300	-107
3.02667	-89
3.03033	-74
3.03400	-62
3.03767	-51
3.04133	-42
3.04500	-34
3.04867	-27
3.05233	-22
3.05600	-17
3.05967	-13
3.06333	-9
3.06700	-6
3.07067	-4
3.07433	-2
3.07800	0
3.08167	2
3.08533	3
3.08900	5
3.09267	6
3.09633	7
3.10000	8
3.10367	9
3.10733	10
3.11100	11
3.11467	12
3.11833	13
3.12200	13
3.12567	14
3.12933	14
3.13300	14
3.13667	15
3.14033	15
3.14400	15
3.14767	15
3.15133	15
3.15500	15
3.15867	15
3.16233	15
3.16600	15
3.16967	15
3.17333	16
3.17700	16
3.18067	16
3.18433	16
3.18800	17
3.19167	17
3.19533	17
3.19900	18
3.20267	18
3.20633	19
3.21000	19
3.21367	20
3.21733	20
3.22100	21
3.22467	21
3.22833	21
3.23200	22
3.23567	22
3.23933	22
3.24300	23
3.24667	23
3.25033	23
3.25400	23
3.25767	23
3.26133	23
3.26500	22
3.26867	22
3.27233	22
3.27600	22
3.27967	22
3.28333	22
3.28700	22
3.29067	22
3.29433	22
3.29800	22
3.30167	22
3.30533	23
3.30900	23
3.31267	23
3.31633	23
3.32000	23
3.32367	23
3.32733	24
3.33100	24
3.33467	24
3.33833	24
3.34200	24
3.34567	24
3.34933	25
3.35300	25
3.35667	25
3.36033	25
3.36400	25
3.36767	25
3.37133	25
3.37500	26
3.37867	26
3.38233	26
3.38600	26
3.38967	25
3.39333	25
3.39700	25
3.40067	25
3.40433	25
3.40800	24
3.41167	24
3.41533	24
3.41900	24
3.42267	24
3.42633	24
3.43000	24
3.43367	24
3.43733	24
3.44100	24
3.44467	24
3.44833	24
3.45200	24
3.45567	24
3.45933	24
3.46300	24
3.46667	24
3.47033	24
3.47400	23
3.47767	23
3.48133	23
3.48500	23
3.48867	24
3.49233	23
3.49600	24
3.49967	24
3.50333	23
3.50700	23
3.51067	23
3.51433	23
3.51800	23
3.52167	23
3.52533	23
3.52900	23
3.53267	23
3.53633	23
3.54000	24
3.54367	24
3.54733	24
3.55100	24
3.55467	24
3.55833	24
3.56200	24
3.56567	23
3.56933	23
3.57300	23
3.57667	23
3.58033	23
3.58400	23
3.58767	23
3.59133	23
3.59500	24
3.59867	24
3.60233	24
3.60600	24
3.60967	24
3.61333	24
3.61700	24
3.62067	24
3.62433	24
3.62800	24
3.63167	24
3.63533	24
3.63900	24
3.64267	24
3.64633	24
3.65000	25
3.65367	25
3.65733	25
3.66100	25
3.66467	25
3.66833	25
3.67200	25
3.67567	25
3.67933	25
3.68300	25
3.68667	24
3.69033	24
3.69400	24
3.69767	23
3.70133	23
3.70500	23
3.70867	23
3.71233	23
3.71600	23
3.71967	23
3.72333	23
3.72700	23
3.73067	23
3.73433	23
3.73800	23
3.74167	23
3.74533	23
3.74900	23
3.75267	23
3.75633	23
3.76000	23
3.76367	23
3.76733	23
3.77100	24
3.77467	24
3.77833	24
3.78200	24
3.78567	23
3.78933	23
3.79300	23
3.79667	23
3.80033	23
3.80400	23
3.80767	23
3.81133	23
3.81500	23
3.81867	23
3.82233	23
3.82600	23
3.82967	23
3.83333	24
3.83700	24
3.84067	24
3.84433	24
3.84800	24
3.85167	24
3.85533	24
3.85900	24
3.86267	23
3.86633	23
3.87000	23
3.87367	23
3.87733	23
3.88100	23
3.88467	23
3.88833	23
3.89200	23
3.89567	23
3.89933	23
3.90300	24
3.90667	24
3.91033	24
3.91400	24
3.91767	25
3.92133	25
3.92500	25
3.92867	25
3.93233	25
3.93600	25
3.93967	25
3.94333	25
3.94700	25
3.95067	25
3.95433	25
3.95800	25
3.96167	25
3.96533	25
3.96900	25
3.97267	24
3.97633	24
3.98000	24
3.98367	24
3.98733	24
3.99100	23
3.99467	23
3.99833	23

[Chromatogram (Ch3)]
Interval(msec)	220
# of Points	1091
Start Time(min)	0.002
End Time(min)	3.998
R.Time (min)	Intensity
0.00167	-1
0.00533	-4
0.00900	-4
0.01267	-4
0.01633	-3
0.02000	-3
0.02367	-3
0.02733	-3
0.03100	-5
0.03467	-6
0.03833	-4
0.04200	-2
0.04567	-1
0.04933	-3
0.05300	-3
0.05667	-1
0.06033	0
0.06400	0
0.06767	0
0.07133	-0
0.07500	-2
0.07867	-4
0.08233	-5
0.08600	-4
0.08967	-3
0.09333	-2
0.09700	-1
0.10067	-2
0.10433	-3
0.10800	-4
0.11167	-3
0.11533	-1
0.11900	0
0.12267	-1
0.12633	-1
0.13000	-2
0.13367	-1
0.13733	1
0.14100	1
0.14467	-0
0.14833	-2
0.15200	-2
0.15567	-1
0.15933	0
0.16300	1
0.16667	-1
0.17033	-2
0.17400	-2
0.17767	-3
0.18133	-4
0.18500	-2
0.18867	0
0.19233	-1
0.19600	-3
0.19967	-4
0.20333	-3
0.20700	-2
0.21067	-3
0.21433	-5
0.21800	-5
0.22167	-3
0.22533	0
0.22900	3
0.23267	6
0.23633	4
0.24000	1
0.24367	-0
0.24733	-3
0.25100	-5
0.25467	-3
0.25833	-3
0.26200	-3
0.26567	-5
0.26933	-8
0.27300	-9
0.27667	-8
0.28033	-7
0.28400	-5
0.28767	-2
0.29133	-0
0.29500	1
0.29867	2
0.30233	1
0.30600	1
0.30967	-1
0.31333	-3
0.31700	-3
0.32067	-2
0.32433	1
0.32800	3
0.33167	2
0.33533	0
0.33900	0
0.34267	-0
0.34633	1
0.35000	1
0.35367	2
0.35733	2
0.36100	1
0.36467	1
0.36833	-1
0.37200	-2
0.37567	-4
0.37933	-3
0.38300	-2
0.38667	-1
0.39033	-0
0.39400	1
0.39767	3
0.40133	2
0.40500	-1
0.40867	-4
0.41233	-7
0.41600	-6
0.41967	-5
0.42333	-3
0.42700	-3
0.43067	-6
0.43433	-6
0.43800	-8
0.44167	-9
0.44533	-9
0.44900	-10
0.45267	-10
0.45633	-9
0.46000	-9
0.46367	-9
0.46733	-7
0.47100	-5
0.47467	-3
0.47833	-2
0.48200	2
0.48567	4
0.48933	3
0.49300	0
0.49667	-1
0.50033	2
0.50400	2
0.50767	-0
0.51133	-2
0.51500	-2
0.51867	-3
0.52233	-4
0.52600	-3
0.52967	-4
0.53333	-6
0.53700	-7
0.54067	-7
0.54433	-7
0.54800	-7
0.55167	-5
0.55533	-3
0.55900	-3
0.56267	-4
0.56633	-5
0.57000	-6
0.57367	-7
0.57733	-5
0.58100	-4
0.58467	-1
0.58833	2
0.59200	5
0.59567	4
0.59933	0
0.60300	-2
0.60667	-4
0.61033	-6
0.61400	-6
0.61767	-8
0.62133	-9
0.62500	-8
0.62867	-7
0.63233	-6
0.63600	-5
0.63967	-3
0.64333	-4
0.64700	-4
0.65067	-3
0.65433	-4
0.65800	-5
0.66167	-5
0.66533	-4
0.66900	-4
0.67267	-6
0.67633	-6
0.68000	-5
0.68367	-3
0.68733	-2
0.69100	-4
0.69467	-6
0.69833	-5
0.70200	-3
0.70567	-2
0.70933	-2
0.71300	-1
0.71667	-0
0.72033	1
0.72400	1
0.72767	-2
0.73133	-3
0.73500	-3
0.73867	-2
0.74233	-2
0.74600	-2
0.74967	-3
0.75333	-1
0.75700	0
0.76067	-0
0.76433	-0
0.76800	1
0.77167	1
0.77533	-0
0.77900	-0
0.78267	2
0.78633	3
0.79000	3
0.79367	2
0.79733	3
0.80100	3
0.80467	3
0.80833	0
0.81200	-4
0.81567	-4
0.81933	-3
0.82300	-0
0.82667	1
0.83033	2
0.83400	2
0.83767	3
0.84133	1
0.84500	0
0.84867	-1
0.85233	-3
0.85600	-1
0.85967	3
0.86333	4
0.86700	4
0.87067	3
0.87433	3
0.87800	5
0.88167	4
0.88533	3
0.88900	3
0.89267	5
0.89633	7
0.90000	6
0.90367	6
0.90733	6
0.91100	4
0.91467	2
0.91833	2
0.92200	3
0.92567	2
0.92933	2
0.93300	2
0.93667	2
0.94033	3
0.94400	4
0.94767	4
0.95133	7
0.95500	8
0.95867	7
0.96233	5
0.96600	3
0.96967	3
0.97333	5
0.97700	5
0.98067	4
0.98433	7
0.98800	10
0.99167	14
0.99533	15
0.99900	14
1.00267	10
1.00633	8
1.01000	8
1.01367	7
1.01733	6
1.02100	8
1.02467	8
1.02833	9
1.03200	7
1.03567	5
1.03933	4
1.04300	4
1.04667	5
1.05033	5
1.05400	5
1.05767	5
1.06133	8
1.06500	10
1.06867	11
1.07233	12
1.07600	12
1.07967	12
1.08333	11
1.08700	11
1.09067	9
1.09433	8
1.09800	9
1.10167	10
1.10533	9
1.10900	10
1.11267	11
1.11633	10
1.12000	8
1.12367	9
1.12733	10
1.13100	10
1.13467	10
1.13833	10
1.14200	11
1.14567	13
1.14933	13
1.15300	13
1.15667	14
1.16033	15
1.16400	14
1.16767	14
1.17133	13
1.17500	11
1.17867	9
1.18233	9
1.18600	9
1.18967	9
1.19333	8
1.19700	4
1.20067	2
1.20433	3
1.20800	4
1.21167	3
1.21533	4
1.21900	5
1.22267	5
1.22633	6
1.23000	7
1.23367	10
1.23733	11
1.24100	12
1.24467	14
1.24833	15
1.25200	15
1.25567	15
1.25933	13
1.26300	12
1.26667	10
1.27033	10
1.27400	11
1.27767	12
1.28133	11
1.28500	11
1.28867	10
1.29233	11
1.29600	13
1.29967	14
1.30333	15
1.30700	14
1.31067	12
1.31433	10
1.31800	7
1.32167	5
1.32533	6
1.32900	8
1.33267	9
1.33633	9
1.34000	10
1.34367	10
1.34733	9
1.35100	9
1.35467	8
1.35833	9
1.36200	9
1.36567	10
1.36933	11
1.37300	10
1.37667	10
1.38033	10
1.38400	10
1.38767	11
1.39133	9
1.39500	9
1.39867	7
1.40233	7
1.40600	9
1.40967	10
1.41333	11
1.41700	10
1.42067	12
1.42433	13
1.42800	15
1.43167	17
1.43533	16
1.43900	16
1.44267	14
1.44633	11
1.45000	10
1.45367	10
1.45733	9
1.46100	10
1.46467	9
1.46833	7
1.47200	7
1.47567	7
1.47933	6
1.48300	6
1.48667	7
1.49033	6
1.49400	6
1.49767	5
1.50133	6
1.50500	6
1.50867	8
1.51233	8
1.51600	7
1.51967	5
1.52333	5
1.52700	6
1.53067	8
1.53433	9
1.53800	11
1.54167	12
1.54533	13
1.54900	11
1.55267	10
1.55633	10
1.56000	11
1.56367	13
1.56733	13
1.57100	14
1.57467	13
1.57833	13
1.58200	14
1.58567	15
1.58933	13
1.59300	11
1.59667	10
1.60033	11
1.60400	13
1.60767	12
1.61133	11
1.61500	11
1.61867	9
1.62233	8
1.62600	8
1.62967	9
1.63333	11
1.63700	12
1.64067	14
1.64433	14
1.64800	13
1.65167	12
1.65533	14
1.65900	19
1.66267	22
1.66633	24
1.67000	25
1.67367	22
1.67733	23
1.68100	23
1.68467	24
1.68833	25
1.69200	26
1.69567	27
1.69933	25
1.70300	24
1.70667	23
1.71033	20
1.71400	20
1.71767	20
1.72133	21
1.72500	20
1.72867	20
1.73233	21
1.73600	23
1.73967	24
1.74333	24
1.74700	25
1.75067	27
1.75433	28
1.75800	28
1.76167	29
1.76533	30
1.76900	32
1.77267	32
1.77633	31
1.78000	29
1.78367	28
1.78733	27
1.79100	30
1.79467	31
1.79833	32
1.80200	35
1.80567	37
1.80933	37
1.81300	37
1.81667	38
1.82033	38
1.82400	37
1.82767	36
1.83133	37
1.83500	41
1.83867	43
1.84233	44
1.84600	44
1.84967	42
1.85333	40
1.85700	40
1.86067	41
1.86433	43
1.86800	46
1.87167	48
1.87533	49
1.87900	49
1.88267	48
1.88633	49
1.89000	50
1.89367	53
1.89733	57
1.90100	59
1.90467	61
1.90833	59
1.91200	55
1.91567	55
1.91933	56
1.92300	56
1.92667	55
1.93033	55
1.93400	55
1.93767	57
1.94133	59
1.94500	61
1.94867	61
1.95233	62
1.95600	63
1.95967	63
1.96333	63
1.96700	64
1.97067	66
1.97433	68
1.97800	68
1.98167	67
1.98533	70
1.98900	73
1.99267	74
1.99633	76
2.00000	79
2.00367	82
2.00733	84
2.01100	86
2.01467	87
2.01833	88
2.02200	90
2.02567	89
2.02933	91
2.03300	90
2.03667	89
2.04033	89
2.04400	89
2.04767	88
2.05133	87
2.05500	86
2.05867	90
2.06233	93
2.06600	95
2.06967	97
2.07333	99
2.07700	98
2.08067	97
2.08433	97
2.08800	97
2.09167	98
2.09533	100
2.09900	101
2.10267	104
2.10633	105
2.11000	106
2.11367	109
2.11733	111
2.12100	111
2.12467	112
2.12833	114
2.13200	119
2.13567	122
2.13933	122
2.14300	120
2.14667	121
2.15033	122
2.15400	125
2.15767	126
2.16133	125
2.16500	126
2.16867	127
2.17233	128
2.17600	128
2.17967	128
2.18333	129
2.18700	132
2.19067	135
2.19433	138
2.19800	139
2.20167	140
2.20533	140
2.20900	142
2.21267	144
2.21633	143
2.22000	142
2.22367	142
2.22733	143
2.23100	145
2.23467	148
2.23833	150
2.24200	152
2.24567	153
2.24933	153
2.25300	154
2.25667	156
2.26033	156
2.26400	156
2.26767	159
2.27133	161
2.27500	161
2.27867	163
2.28233	165
2.28600	165
2.28967	166
2.29333	166
2.29700	167
2.30067	166
2.30433	166
2.30800	169
2.31167	171
2.31533	172
2.31900	175
2.32267	175
2.32633	175
2.33000	174
2.33367	175
2.33733	180
2.34100	183
2.34467	184
2.34833	184
2.35200	185
2.35567	187
2.35933	188
2.36300	188
2.36667	187
2.37033	186
2.37400	187
2.37767	189
2.38133	189
2.38500	190
2.38867	191
2.39233	193
2.39600	195
2.39967	196
2.40333	196
2.40700	196
2.41067	198
2.41433	199
2.41800	202
2.42167	203
2.42533	205
2.42900	206
2.43267	205
2.43633	204
2.44000	208
2.44367	249
2.44733	354
2.45100	471
2.45467	565
2.45833	615
2.46200	619
2.46567	600
2.46933	581
2.47300	568
2.47667	555
2.48033	533
2.48400	502
2.48767	467
2.49133	432
2.49500	401
2.49867	381
2.50233	369
2.50600	365
2.50967	369
2.51333	377
2.51700	387
2.52067	395
2.52433	399
2.52800	396
2.53167	387
2.53533	373
2.53900	354
2.54267	334
2.54633	313
2.55000	293
2.55367	277
2.55733	265
2.56100	258
2.56467	252
2.56833	249
2.57200	245
2.57567	242
2.57933	241
2.58300	243
2.58667	244
2.59033	245
2.59400	247
2.59767	248
2.60133	249
2.60500	246
2.60867	240
2.61233	230
2.61600	219
2.61967	207
2.62333	193
2.62700	177
2.63067	162
2.63433	150
2.63800	137
2.64167	125
2.64533	113
2.64900	103
2.65267	93
2.65633	86
2.66000	82
2.66367	79
2.66733	78
2.67100	76
2.67467	73
2.67833	72
2.68200	73
2.68567	74
2.68933	74
2.69300	75
2.69667	78
2.70033	85
2.70400	91
2.70767	98
2.71133	106
2.71500	112
2.71867	116
2.72233	119
2.72600	122
2.72967	127
2.73333	133
2.73700	136
2.74067	139
2.74433	143
2.74800	145
2.75167	149
2.75533	152
2.75900	154
2.76267	155
2.76633	155
2.77000	154
2.77367	155
2.77733	157
2.78100	159
2.78467	161
2.78833	164
2.79200	168
2.79567	172
2.79933	176
2.80300	181
2.80667	188
2.81033	194
2.81400	200
2.81767	205
2.82133	213
2.82500	226
2.82867	252
2.83233	301
2.83600	393
2.83967	550
2.84333	791
2.84700	1129
2.85067	1566
2.85433	2083
2.85800	2651
2.86167	3227
2.86533	3761
2.86900	4215
2.87267	4554
2.87633	4753
2.88000	4815
2.88367	4746
2.88733	4568
2.89100	4311
2.89467	4004
2.89833	3670
2.90200	3329
2.90567	2995
2.90933	2678
2.91300	2385
2.91667	2118
2.92033	1879
2.92400	1664
2.92767	1473
2.93133	1303
2.93500	1151
2.93867	1018
2.94233	904
2.94600	805
2.94967	718
2.95333	640
2.95700	574
2.96067	520
2.96433	473
2.96800	433
2.97167	397
2.97533	368
2.97900	342
2.98267	319
2.98633	301
2.99000	285
2.99367	270
2.99733	257
3.00100	246
3.00467	236
3.00833	228
3.01200	219
3.01567	210
3.01933	203
3.02300	200
3.02667	197
3.03033	195
3.03400	194
3.03767	192
3.04133	192
3.04500	190
3.04867	188
3.05233	187
3.05600	187
3.05967	189
3.06333	192
3.06700	192
3.07067	191
3.07433	191
3.07800	191
3.08167	190
3.08533	191
3.08900	190
3.09267	190
3.09633	188
3.10000	188
3.10367	188
3.10733	191
3.11100	193
3.11467	193
3.11833	193
3.12200	192
3.12567	189
3.12933	189
3.13300	192
3.13667	193
3.14033	193
3.14400	192
3.14767	191
3.15133	189
3.15500	189
3.15867	191
3.16233	193
3.16600	196
3.16967	199
3.17333	198
3.17700	196
3.18067	197
3.18433	199
3.18800	203
3.19167	206
3.19533	209
3.19900	212
3.20267	215
3.20633	216
3.21000	218
3.21367	220
3.21733	223
3.22100	225
3.22467	225
3.22833	224
3.23200	223
3.23567	222
3.23933	223
3.24300	225
3.24667	228
3.25033	232
3.25400	234
3.25767	237
3.26133	240
3.26500	241
3.26867	242
3.27233	243
3.27600	243
3.27967	247
3.28333	251
3.28700	254
3.29067	253
3.29433	252
3.29800	254
3.30167	256
3.30533	257
3.30900	256
3.31267	254
3.31633	254
3.32000	256
3.32367	257
3.32733	257
3.33100	258
3.33467	260
3.33833	264
3.34200	266
3.34567	266
3.34933	267
3.35300	267
3.35667	267
3.36033	269
3.36400	271
3.36767	273
3.37133	275
3.37500	277
3.37867	278
3.38233	279
3.38600	279
3.38967	279
3.39333	280
3.39700	281
3.40067	282
3.40433	285
3.40800	288
3.41167	290
3.41533	289
3.41900	288
3.42267	288
3.42633	288
3.43000	287
3.43367	286
3.43733	285
3.44100	286
3.44467	288
3.44833	292
3.45200	295
3.45567	296
3.45933	293
3.46300	291
3.46667	291
3.47033	291
3.47400	292
3.47767	293
3.48133	292
3.48500	291
3.48867	291
3.49233	290
3.49600	289
3.49967	289
3.50333	290
3.50700	293
3.51067	294
3.51433	294
3.51800	292
3.52167	290
3.52533	290
3.52900	289
3.53267	289
3.53633	290
3.54000	291
3.54367	290
3.54733	290
3.55100	291
3.55467	291
3.55833	292
3.56200	293
3.56567	293
3.56933	291
3.57300	290
3.57667	288
3.58033	286
3.58400	287
3.58767	287
3.59133	287
3.59500	288
3.59867	291
3.60233	291
3.60600	289
3.60967	288
3.61333	287
3.61700	287
3.62067	287
3.62433	286
3.62800	285
3.63167	287
3.63533	290
3.63900	290
3.64267	289
3.64633	289
3.65000	286
3.65367	285
3.65733	286
3.66100	284
3.66467	284
3.66833	285
3.67200	286
3.67567	286
3.67933	285
3.68300	284
3.68667	285
3.69033	285
3.69400	286
3.69767	288
3.70133	289
3.70500	289
3.70867	290
3.71233	290
3.71600	289
3.71967	288
3.72333	287
3.72700	286
3.73067	288
3.73433	290
3.73800	288
3.74167	289
3.74533	290
3.74900	291
3.75267	288
3.75633	285
3.76000	285
3.76367	287
3.76733	288
3.77100	286
3.77467	285
3.77833	285
3.78200	285
3.78567	285
3.78933	287
3.79300	287
3.79667	287
3.80033	287
3.80400	287
3.80767	286
3.81133	283
3.81500	279
3.81867	276
3.82233	276
3.82600	275
3.82967	278
3.83333	286
3.83700	296
3.84067	305
3.84433	314
3.84800	325
3.85167	341
3.85533	358
3.85900	376
3.86267	395
3.86633	409
3.87000	422
3.87367	435
3.87733	446
3.88100	456
3.88467	468
3.88833	482
3.89200	498
3.89567	514
3.89933	526
3.90300	536
3.90667	544
3.91033	553
3.91400	559
3.91767	565
3.92133	570
3.92500	573
3.92867	576
3.93233	579
3.93600	582
3.93967	584
3.94333	584
3.94700	584
3.95067	585
3.95433	586
3.95800	587
3.96167	589
3.96533	593
3.96900	595
3.97267	596
3.97633	597
3.98000	598
3.98367	597
3.98733	597
3.99100	598
3.99467	598
3.99833	595

[Status Trace (Column Oven Temperature)]
Interval(msec)	1000
# of Points	240
Start Time(min)	0.003
End Time(min)	3.986
Intensity Units	
Intensity Multiplier	1
R.Time (min)	Intensity
0.00315	35.00
0.01982	34.99
0.03648	34.98
0.05315	34.99
0.06982	35.01
0.08648	35.02
0.10315	35.04
0.11982	35.04
0.13648	35.06
0.15315	35.06
0.16982	35.06
0.18648	35.05
0.20315	35.04
0.21982	35.05
0.23648	35.05
0.25315	35.04
0.26982	35.03
0.28648	35.02
0.30315	35.00
0.31982	34.98
0.33648	34.98
0.35315	34.99
0.36982	34.99
0.38648	34.99
0.40315	34.99
0.41982	35.00
0.43648	34.99
0.45315	34.99
0.46982	35.00
0.48648	35.00
0.50315	35.01
0.51982	35.01
0.53648	35.00
0.55315	35.00
0.56982	34.99
0.58648	34.99
0.60315	34.99
0.61982	34.99
0.63648	34.99
0.65315	35.00
0.66982	35.00
0.68648	34.99
0.70315	34.99
0.71982	35.00
0.73648	34.99
0.75315	34.99
0.76982	34.98
0.78648	34.98
0.80315	34.98
0.81982	34.98
0.83648	35.00
0.85315	34.99
0.86982	34.99
0.88648	35.00
0.90315	34.99
0.91982	34.99
0.93648	35.00
0.95315	35.01
0.96982	35.03
0.98648	35.03
1.00315	35.01
1.01982	35.00
1.03648	34.99
1.05315	34.98
1.06982	34.98
1.08648	34.98
1.10315	35.00
1.11982	35.01
1.13648	35.00
1.15315	34.99
1.16982	35.00
1.18648	35.01
1.20315	35.00
1.21982	35.00
1.23648	35.01
1.25315	35.02
1.26982	35.03
1.28648	35.03
1.30315	35.02
1.31982	35.00
1.33648	34.98
1.35315	34.97
1.36982	34.96
1.38648	34.95
1.40315	34.95
1.41982	34.95
1.43648	34.96
1.45315	34.97
1.46982	34.98
1.48648	34.98
1.50315	34.97
1.51982	34.97
1.53648	34.98
1.55315	34.97
1.56982	34.96
1.58648	34.97
1.60315	35.01
1.61982	35.12
1.63648	35.29
1.65315	35.52
1.66982	35.85
1.68648	36.23
1.70315	36.58
1.71982	36.93
1.73648	37.25
1.75315	37.57
1.76982	37.91
1.78648	38.24
1.80315	38.59
1.81982	38.91
1.83648	39.24
1.85315	39.58
1.86982	39.91
1.88648	40.24
1.90315	40.57
1.91982	40.92
1.93648	41.23
1.95315	41.56
1.96982	41.89
1.98648	42.22
2.00315	42.55
2.01982	42.88
2.03648	43.19
2.05315	43.50
2.06982	43.82
2.08648	44.17
2.10315	44.47
2.11982	44.81
2.13648	45.13
2.15315	45.46
2.16982	45.78
2.18648	46.10
2.20315	46.42
2.21982	46.76
2.23648	47.07
2.25315	47.40
2.26982	47.73
2.28648	48.06
2.30315	48.39
2.31982	48.78
2.33648	49.07
2.35315	49.36
2.36982	49.61
2.38648	49.72
2.40315	49.72
2.41982	49.73
2.43648	49.73
2.45315	49.75
2.46982	49.74
2.48648	49.78
2.50315	49.77
2.51982	49.78
2.53648	49.79
2.55315	49.80
2.56982	49.80
2.58648	49.81
2.60315	49.81
2.61982	49.81
2.63648	49.85
2.65315	49.86
2.66982	49.85
2.68648	49.84
2.70315	49.86
2.71982	49.88
2.73648	49.89
2.75315	49.88
2.76982	49.87
2.78648	49.87
2.80315	49.87
2.81982	49.88
2.83648	49.88
2.85315	49.90
2.86982	49.91
2.88648	49.93
2.90315	49.95
2.91982	49.97
2.93648	49.99
2.95315	50.00
2.96982	50.01
2.98648	50.02
3.00315	50.03
3.01982	50.03
3.03648	50.05
3.05315	50.05
3.06982	50.06
3.08648	50.07
3.10315	50.06
3.11982	50.06
3.13648	50.07
3.15315	50.09
3.16982	50.10
3.18648	50.10
3.20315	50.10
3.21982	50.09
3.23648	50.09
3.25315	50.09
3.26982	50.10
3.28648	50.10
3.30315	50.10
3.31982	50.09
3.33648	50.09
3.35315	50.09
3.36982	50.07
3.38648	50.07
3.40315	50.07
3.41982	50.08
3.43648	50.06
3.45315	50.06
3.46982	50.06
3.48648	50.06
3.50315	50.06
3.51982	50.07
3.53648	50.08
3.55315	50.08
3.56982	50.08
3.58648	50.08
3.60315	50.08
3.61982	50.08
3.63648	50.07
3.65315	50.07
3.66982	50.07
3.68648	50.08
3.70315	50.08
3.71982	50.08
3.73648	50.08
3.75315	50.08
3.76982	50.09
3.78648	50.09
3.80315	50.10
3.81982	50.09
3.83648	50.09
3.85315	50.09
3.86982	50.09
3.88648	50.09
3.90315	50.08
3.91982	50.06
3.93648	50.06
3.95315	50.06
3.96982	50.06
3.98648	50.07

[Status Trace (Injection Unit Temperature)]
Interval(msec)	1000
# of Points	240
Start Time(min)	0.003
End Time(min)	3.986
Intensity Units	
Intensity Multiplier	1
R.Time (min)	Intensity
0.00315	99.97
0.01982	99.98
0.03648	99.98
0.05315	99.98
0.06982	99.97
0.08648	99.98
0.10315	99.98
0.11982	99.97
0.13648	99.98
0.15315	99.97
0.16982	99.98
0.18648	99.98
0.20315	99.98
0.21982	99.98
0.23648	99.98
0.25315	99.98
0.26982	99.98
0.28648	99.98
0.30315	99.98
0.31982	99.98
0.33648	99.98
0.35315	99.98
0.36982	99.99
0.38648	99.99
0.40315	99.98
0.41982	99.98
0.43648	99.98
0.45315	99.98
0.46982	99.99
0.48648	99.98
0.50315	99.99
0.51982	99.98
0.53648	99.98
0.55315	99.98
0.56982	99.98
0.58648	99.99
0.60315	99.98
0.61982	99.99
0.63648	99.99
0.65315	99.98
0.66982	99.98
0.68648	99.98
0.70315	99.98
0.71982	99.98
0.73648	99.99
0.75315	99.99
0.76982	99.98
0.78648	99.98
0.80315	99.98
0.81982	99.98
0.83648	99.98
0.85315	99.99
0.86982	99.98
0.88648	99.97
0.90315	99.98
0.91982	99.98
0.93648	99.98
0.95315	99.98
0.96982	99.98
0.98648	99.98
1.00315	99.97
1.01982	99.98
1.03648	99.98
1.05315	99.98
1.06982	99.97
1.08648	99.98
1.10315	99.98
1.11982	99.97
1.13648	99.98
1.15315	99.98
1.16982	99.98
1.18648	99.98
1.20315	99.98
1.21982	99.98
1.23648	99.98
1.25315	99.98
1.26982	99.98
1.28648	99.98
1.30315	99.98
1.31982	99.97
1.33648	99.98
1.35315	99.98
1.36982	99.98
1.38648	99.97
1.40315	99.98
1.41982	99.98
1.43648	99.98
1.45315	99.98
1.46982	99.98
1.48648	99.98
1.50315	99.98
1.51982	99.98
1.53648	99.97
1.55315	99.98
1.56982	99.98
1.58648	99.98
1.60315	99.98
1.61982	99.98
1.63648	99.98
1.65315	99.99
1.66982	99.99
1.68648	99.98
1.70315	99.98
1.71982	99.99
1.73648	99.99
1.75315	99.99
1.76982	99.99
1.78648	99.99
1.80315	99.99
1.81982	99.98
1.83648	99.98
1.85315	99.99
1.86982	99.98
1.88648	99.98
1.90315	99.99
1.91982	99.98
1.93648	99.98
1.95315	99.98
1.96982	99.98
1.98648	99.99
2.00315	99.98
2.01982	99.98
2.03648	99.98
2.05315	99.98
2.06982	99.98
2.08648	99.98
2.10315	99.98
2.11982	99.97
2.13648	99.97
2.15315	99.97
2.16982	99.97
2.18648	99.97
2.20315	99.97
2.21982	99.97
2.23648	99.97
2.25315	99.97
2.26982	99.97
2.28648	99.97
2.30315	99.97
2.31982	99.97
2.33648	99.97
2.35315	99.96
2.36982	99.96
2.38648	99.97
2.40315	99.97
2.41982	99.97
2.43648	99.97
2.45315	99.97
2.46982	99.97
2.48648	99.96
2.50315	99.96
2.51982	99.97
2.53648	99.97
2.55315	99.96
2.56982	99.96
2.58648	99.97
2.60315	99.97
2.61982	99.97
2.63648	99.97
2.65315	99.97
2.66982	99.97
2.68648	99.98
2.70315	99.98
2.71982	99.98
2.73648	99.98
2.75315	99.98
2.76982	99.99
2.78648	99.99
2.80315	99.98
2.81982	99.99
2.83648	99.99
2.85315	99.99
2.86982	99.99
2.88648	100.00
2.90315	100.00
2.91982	100.00
2.93648	100.00
2.95315	100.00
2.96982	100.01
2.98648	100.01
3.00315	100.01
3.01982	100.01
3.03648	100.01
3.05315	100.01
3.06982	100.02
3.08648	100.02
3.10315	100.02
3.11982	100.02
3.13648	100.02
3.15315	100.02
3.16982	100.02
3.18648	100.02
3.20315	100.03
3.21982	100.02
3.23648	100.03
3.25315	100.02
3.26982	100.03
3.28648	100.03
3.30315	100.03
3.31982	100.04
3.33648	100.03
3.35315	100.03
3.36982	100.04
3.38648	100.04
3.40315	100.04
3.41982	100.03
3.43648	100.03
3.45315	100.03
3.46982	100.04
3.48648	100.04
3.50315	100.04
3.51982	100.04
3.53648	100.04
3.55315	100.04
3.56982	100.04
3.58648	100.04
3.60315	100.04
3.61982	100.04
3.63648	100.04
3.65315	100.04
3.66982	100.05
3.68648	100.05
3.70315	100.04
3.71982	100.04
3.73648	100.05
3.75315	100.05
3.76982	100.05
3.78648	100.05
3.80315	100.05
3.81982	100.05
3.83648	100.05
3.85315	100.05
3.86982	100.05
3.88648	100.05
3.90315	100.05
3.91982	100.05
3.93648	100.05
3.95315	100.04
3.96982	100.05
3.98648	100.05

[Status Trace (Carrier Gas Pressure)]
Interval(msec)	1000
# of Points	240
Start Time(min)	0.003
End Time(min)	3.986
Intensity Units	
Intensity Multiplier	1
R.Time (min)	Intensity
0.00315	58.00
0.01982	56.14
0.03648	56.49
0.05315	58.65
0.06982	59.81
0.08648	58.22
0.10315	57.97
0.11982	58.01
0.13648	58.01
0.15315	58.01
0.16982	58.00
0.18648	58.00
0.20315	58.00
0.21982	58.00
0.23648	58.00
0.25315	58.00
0.26982	58.00
0.28648	58.00
0.30315	58.00
0.31982	58.00
0.33648	58.00
0.35315	58.00
0.36982	58.00
0.38648	58.00
0.40315	58.00
0.41982	58.00
0.43648	58.00
0.45315	58.00
0.46982	58.00
0.48648	58.00
0.50315	58.00
0.51982	58.00
0.53648	58.00
0.55315	58.00
0.56982	58.00
0.58648	58.00
0.60315	58.00
0.61982	58.00
0.63648	58.00
0.65315	58.00
0.66982	58.00
0.68648	58.00
0.70315	58.00
0.71982	58.00
0.73648	58.00
0.75315	58.00
0.76982	58.00
0.78648	58.00
0.80315	58.00
0.81982	58.00
0.83648	58.00
0.85315	58.00
0.86982	58.00
0.88648	58.00
0.90315	58.00
0.91982	58.00
0.93648	58.00
0.95315	58.00
0.96982	58.00
0.98648	58.00
1.00315	58.00
1.01982	58.00
1.03648	58.00
1.05315	58.00
1.06982	58.00
1.08648	58.00
1.10315	58.00
1.11982	58.00
1.13648	58.00
1.15315	58.00
1.16982	58.00
1.18648	58.00
1.20315	58.00
1.21982	58.00
1.23648	58.00
1.25315	58.00
1.26982	58.00
1.28648	58.00
1.30315	58.00
1.31982	58.00
1.33648	58.00
1.35315	58.00
1.36982	58.00
1.38648	58.00
1.40315	58.00
1.41982	58.00
1.43648	58.00
1.45315	58.00
1.46982	58.00
1.48648	58.00
1.50315	58.00
1.51982	58.00
1.53648	58.00
1.55315	58.00
1.56982	58.00
1.58648	58.00
1.60315	58.00
1.61982	58.00
1.63648	58.00
1.65315	58.00
1.66982	58.01
1.68648	58.01
1.70315	58.00
1.71982	58.00
1.73648	58.00
1.75315	58.00
1.76982	58.00
1.78648	58.00
1.80315	58.00
1.81982	58.00
1.83648	58.00
1.85315	58.00
1.86982	58.00
1.88648	58.00
1.90315	58.00
1.91982	58.00
1.93648	58.00
1.95315	58.00
1.96982	58.00
1.98648	58.00
2.00315	58.00
2.01982	58.00
2.03648	58.00
2.05315	58.00
2.06982	58.00
2.08648	58.00
2.10315	58.00
2.11982	58.00
2.13648	58.00
2.15315	58.00
2.16982	58.00
2.18648	58.00
2.20315	58.00
2.21982	58.00
2.23648	58.00
2.25315	58.00
2.26982	58.00
2.28648	58.00
2.30315	58.00
2.31982	58.00
2.33648	58.00
2.35315	58.00
2.36982	58.00
2.38648	57.99
2.40315	57.99
2.41982	58.00
2.43648	58.00
2.45315	58.00
2.46982	58.00
2.48648	58.00
2.50315	57.96
2.51982	58.00
2.53648	58.00
2.55315	58.00
2.56982	58.00
2.58648	58.00
2.60315	58.00
2.61982	58.00
2.63648	58.00
2.65315	58.00
2.66982	58.00
2.68648	58.00
2.70315	58.00
2.71982	58.00
2.73648	58.00
2.75315	58.00
2.76982	58.00
2.78648	58.00
2.80315	58.00
2.81982	58.00
2.83648	58.00
2.85315	58.00
2.86982	58.00
2.88648	58.00
2.90315	58.00
2.91982	58.00
2.93648	58.00
2.95315	58.00
2.96982	58.00
2.98648	58.00
3.00315	58.00
3.01982	58.00
3.03648	58.00
3.05315	58.00
3.06982	58.00
3.08648	58.00
3.10315	58.00
3.11982	58.00
3.13648	58.00
3.15315	58.00
3.16982	58.00
3.18648	58.00
3.20315	58.00
3.21982	58.00
3.23648	58.00
3.25315	58.00
3.26982	58.00
3.28648	58.00
3.30315	58.00
3.31982	58.00
3.33648	58.00
3.35315	58.00
3.36982	58.00
3.38648	58.00
3.40315	58.00
3.41982	58.00
3.43648	58.00
3.45315	58.00
3.46982	58.00
3.48648	58.00
3.50315	58.00
3.51982	58.00
3.53648	58.00
3.55315	58.00
3.56982	58.00
3.58648	58.00
3.60315	58.00
3.61982	58.00
3.63648	58.00
3.65315	58.00
3.66982	58.00
3.68648	58.00
3.70315	58.00
3.71982	58.00
3.73648	58.00
3.75315	58.00
3.76982	58.00
3.78648	58.00
3.80315	58.00
3.81982	58.00
3.83648	58.00
3.85315	58.00
3.86982	58.00
3.88648	58.00
3.90315	58.00
3.91982	58.00
3.93648	58.00
3.95315	58.00
3.96982	58.00
3.98648	58.00

[Status Trace (Carrier Gas Flow)]
Interval(msec)	1000
# of Points	240
Start Time(min)	0.003
End Time(min)	3.986
Intensity Units	
Intensity Multiplier	1
R.Time (min)	Intensity
0.00315	34.52
0.01982	34.60
0.03648	34.55
0.05315	34.54
0.06982	34.49
0.08648	34.51
0.10315	34.52
0.11982	34.52
0.13648	34.52
0.15315	34.52
0.16982	34.52
0.18648	34.52
0.20315	34.52
0.21982	34.52
0.23648	34.52
0.25315	34.52
0.26982	34.52
0.28648	34.52
0.30315	34.52
0.31982	34.52
0.33648	34.52
0.35315	34.52
0.36982	34.52
0.38648	34.52
0.40315	34.52
0.41982	34.52
0.43648	34.52
0.45315	34.52
0.46982	34.52
0.48648	34.52
0.50315	34.52
0.51982	34.52
0.53648	34.52
0.55315	34.52
0.56982	34.52
0.58648	34.52
0.60315	34.52
0.61982	34.52
0.63648	34.52
0.65315	34.52
0.66982	34.52
0.68648	34.52
0.70315	34.52
0.71982	34.52
0.73648	34.52
0.75315	34.52
0.76982	34.52
0.78648	34.52
0.80315	34.52
0.81982	34.52
0.83648	34.52
0.85315	34.51
0.86982	34.52
0.88648	34.52
0.90315	34.52
0.91982	34.52
0.93648	34.52
0.95315	34.52
0.96982	34.52
0.98648	34.52
1.00315	34.52
1.01982	34.52
1.03648	34.52
1.05315	34.52
1.06982	34.51
1.08648	34.52
1.10315	34.52
1.11982	34.52
1.13648	34.52
1.15315	34.51
1.16982	34.52
1.18648	34.52
1.20315	34.52
1.21982	34.52
1.23648	34.52
1.25315	34.52
1.26982	34.51
1.28648	34.52
1.30315	34.52
1.31982	34.52
1.33648	34.53
1.35315	34.52
1.36982	34.52
1.38648	34.52
1.40315	34.52
1.41982	34.52
1.43648	34.52
1.45315	34.52
1.46982	34.52
1.48648	34.52
1.50315	34.52
1.51982	34.52
1.53648	34.52
1.55315	34.52
1.56982	34.52
1.58648	34.52
1.60315	34.52
1.61982	34.52
1.63648	34.52
1.65315	34.51
1.66982	34.52
1.68648	34.52
1.70315	34.52
1.71982	34.52
1.73648	34.52
1.75315	34.52
1.76982	34.52
1.78648	34.52
1.80315	34.51
1.81982	34.52
1.83648	34.52
1.85315	34.52
1.86982	34.52
1.88648	34.52
1.90315	34.52
1.91982	34.52
1.93648	34.52
1.95315	34.52
1.96982	34.52
1.98648	34.52
2.00315	34.52
2.01982	34.52
2.03648	34.52
2.05315	34.52
2.06982	34.52
2.08648	34.52
2.10315	34.52
2.11982	34.52
2.13648	34.52
2.15315	34.52
2.16982	34.52
2.18648	34.52
2.20315	34.52
2.21982	34.52
2.23648	34.52
2.25315	34.52
2.26982	34.52
2.28648	34.52
2.30315	34.52
2.31982	34.51
2.33648	34.52
2.35315	34.52
2.36982	34.52
2.38648	34.54
2.40315	34.52
2.41982	34.52
2.43648	34.52
2.45315	34.52
2.46982	34.52
2.48648	34.52
2.50315	34.65
2.51982	34.52
2.53648	34.52
2.55315	34.52
2.56982	34.52
2.58648	34.52
2.60315	34.52
2.61982	34.51
2.63648	34.52
2.65315	34.52
2.66982	34.52
2.68648	34.52
2.70315	34.52
2.71982	34.52
2.73648	34.52
2.75315	34.51
2.76982	34.52
2.78648	34.52
2.80315	34.52
2.81982	34.52
2.83648	34.52
2.85315	34.52
2.86982	34.52
2.88648	34.52
2.90315	34.51
2.91982	34.52
2.93648	34.52
2.95315	34.51
2.96982	34.52
2.98648	34.52
3.00315	34.52
3.01982	34.52
3.03648	34.52
3.05315	34.52
3.06982	34.52
3.08648	34.52
3.10315	34.52
3.11982	34.52
3.13648	34.52
3.15315	34.52
3.16982	34.52
3.18648	34.51
3.20315	34.52
3.21982	34.52
3.23648	34.52
3.25315	34.51
3.26982	34.52
3.28648	34.52
3.30315	34.52
3.31982	34.52
3.33648	34.52
3.35315	34.52
3.36982	34.52
3.38648	34.52
3.40315	34.52
3.41982	34.52
3.43648	34.52
3.45315	34.52
3.46982	34.52
3.48648	34.52
3.50315	34.52
3.51982	34.52
3.53648	34.52
3.55315	34.52
3.56982	34.52
3.58648	34.52
3.60315	34.51
3.61982	34.52
3.63648	34.52
3.65315	34.52
3.66982	34.52
3.68648	34.51
3.70315	34.52
3.71982	34.52
3.73648	34.52
3.75315	34.51
3.76982	34.52
3.78648	34.52
3.80315	34.51
3.81982	34.51
3.83648	34.51
3.85315	34.52
3.86982	34.52
3.88648	34.52
3.90315	34.52
3.91982	34.52
3.93648	34.52
3.95315	34.51
3.96982	34.52
3.98648	34.52

[Status Trace (Column Flow)]
Interval(msec)	1000
# of Points	240
Start Time(min)	0.003
End Time(min)	3.986
Intensity Units	
Intensity Multiplier	1
R.Time (min)	Intensity
0.00315	5.52
0.01982	5.31
0.03648	5.35
0.05315	5.60
0.06982	5.73
0.08648	5.55
0.10315	5.52
0.11982	5.52
0.13648	5.52
0.15315	5.52
0.16982	5.52
0.18648	5.52
0.20315	5.52
0.21982	5.52
0.23648	5.52
0.25315	5.52
0.26982	5.52
0.28648	5.52
0.30315	5.52
0.31982	5.52
0.33648	5.52
0.35315	5.52
0.36982	5.52
0.38648	5.52
0.40315	5.52
0.41982	5.52
0.43648	5.52
0.45315	5.52
0.46982	5.52
0.48648	5.52
0.50315	5.52
0.51982	5.52
0.53648	5.52
0.55315	5.52
0.56982	5.52
0.58648	5.52
0.60315	5.52
0.61982	5.52
0.63648	5.52
0.65315	5.52
0.66982	5.52
0.68648	5.52
0.70315	5.52
0.71982	5.52
0.73648	5.52
0.75315	5.52
0.76982	5.52
0.78648	5.52
0.80315	5.52
0.81982	5.52
0.83648	5.52
0.85315	5.52
0.86982	5.52
0.88648	5.52
0.90315	5.52
0.91982	5.52
0.93648	5.52
0.95315	5.52
0.96982	5.52
0.98648	5.52
1.00315	5.52
1.01982	5.52
1.03648	5.52
1.05315	5.52
1.06982	5.52
1.08648	5.52
1.10315	5.52
1.11982	5.52
1.13648	5.52
1.15315	5.52
1.16982	5.52
1.18648	5.52
1.20315	5.52
1.21982	5.52
1.23648	5.52
1.25315	5.52
1.26982	5.52
1.28648	5.52
1.30315	5.52
1.31982	5.52
1.33648	5.52
1.35315	5.52
1.36982	5.52
1.38648	5.52
1.40315	5.52
1.41982	5.52
1.43648	5.52
1.45315	5.52
1.46982	5.52
1.48648	5.52
1.50315	5.52
1.51982	5.52
1.53648	5.52
1.55315	5.52
1.56982	5.52
1.58648	5.52
1.60315	5.52
1.61982	5.52
1.63648	5.51
1.65315	5.51
1.66982	5.50
1.68648	5.48
1.70315	5.47
1.71982	5.46
1.73648	5.45
1.75315	5.44
1.76982	5.43
1.78648	5.42
1.80315	5.41
1.81982	5.40
1.83648	5.39
1.85315	5.38
1.86982	5.37
1.88648	5.36
1.90315	5.35
1.91982	5.34
1.93648	5.33
1.95315	5.32
1.96982	5.31
1.98648	5.30
2.00315	5.29
2.01982	5.28
2.03648	5.27
2.05315	5.26
2.06982	5.25
2.08648	5.24
2.10315	5.23
2.11982	5.23
2.13648	5.22
2.15315	5.21
2.16982	5.20
2.18648	5.19
2.20315	5.18
2.21982	5.17
2.23648	5.16
2.25315	5.15
2.26982	5.14
2.28648	5.13
2.30315	5.12
2.31982	5.11
2.33648	5.10
2.35315	5.10
2.36982	5.09
2.38648	5.09
2.40315	5.09
2.41982	5.09
2.43648	5.09
2.45315	5.09
2.46982	5.09
2.48648	5.08
2.50315	5.08
2.51982	5.08
2.53648	5.08
2.55315	5.08
2.56982	5.08
2.58648	5.08
2.60315	5.08
2.61982	5.08
2.63648	5.08
2.65315	5.08
2.66982	5.08
2.68648	5.08
2.70315	5.08
2.71982	5.08
2.73648	5.08
2.75315	5.08
2.76982	5.08
2.78648	5.08
2.80315	5.08
2.81982	5.08
2.83648	5.08
2.85315	5.08
2.86982	5.08
2.88648	5.08
2.90315	5.08
2.91982	5.08
2.93648	5.08
2.95315	5.08
2.96982	5.08
2.98648	5.08
3.00315	5.08
3.01982	5.08
3.03648	5.08
3.05315	5.08
3.06982	5.08
3.08648	5.08
3.10315	5.08
3.11982	5.08
3.13648	5.08
3.15315	5.08
3.16982	5.08
3.18648	5.08
3.20315	5.08
3.21982	5.08
3.23648	5.08
3.25315	5.08
3.26982	5.08
3.28648	5.08
3.30315	5.08
3.31982	5.08
3.33648	5.08
3.35315	5.08
3.36982	5.08
3.38648	5.08
3.40315	5.08
3.41982	5.08
3.43648	5.08
3.45315	5.08
3.46982	5.08
3.48648	5.08
3.50315	5.08
3.51982	5.08
3.53648	5.08
3.55315	5.08
3.56982	5.08
3.58648	5.08
3.60315	5.08
3.61982	5.08
3.63648	5.08
3.65315	5.08
3.66982	5.08
3.68648	5.08
3.70315	5.08
3.71982	5.08
3.73648	5.08
3.75315	5.08
3.76982	5.08
3.78648	5.08
3.80315	5.08
3.81982	5.08
3.83648	5.08
3.85315	5.08
3.86982	5.08
3.88648	5.08
3.90315	5.08
3.91982	5.08
3.93648	5.08
3.95315	5.08
3.96982	5.08
3.98648	5.08

[Status Trace (Linear Velocity)]
Interval(msec)	1000
# of Points	240
Start Time(min)	0.003
End Time(min)	3.986
Intensity Units	
Intensity Multiplier	1
R.Time (min)	Intensity
0.00315	39.02
0.01982	37.80
0.03648	38.03
0.05315	39.44
0.06982	40.20
0.08648	39.16
0.10315	39.00
0.11982	39.02
0.13648	39.02
0.15315	39.01
0.16982	39.01
0.18648	39.01
0.20315	39.01
0.21982	39.01
0.23648	39.01
0.25315	39.01
0.26982	39.01
0.28648	39.02
0.30315	39.02
0.31982	39.02
0.33648	39.02
0.35315	39.02
0.36982	39.02
0.38648	39.02
0.40315	39.02
0.41982	39.02
0.43648	39.02
0.45315	39.02
0.46982	39.02
0.48648	39.02
0.50315	39.02
0.51982	39.02
0.53648	39.02
0.55315	39.02
0.56982	39.02
0.58648	39.02
0.60315	39.02
0.61982	39.02
0.63648	39.02
0.65315	39.02
0.66982	39.02
0.68648	39.02
0.70315	39.02
0.71982	39.02
0.73648	39.02
0.75315	39.02
0.76982	39.02
0.78648	39.02
0.80315	39.02
0.81982	39.02
0.83648	39.02
0.85315	39.02
0.86982	39.02
0.88648	39.02
0.90315	39.02
0.91982	39.02
0.93648	39.02
0.95315	39.02
0.96982	39.01
0.98648	39.01
1.00315	39.02
1.01982	39.02
1.03648	39.02
1.05315	39.02
1.06982	39.02
1.08648	39.02
1.10315	39.02
1.11982	39.02
1.13648	39.02
1.15315	39.02
1.16982	39.02
1.18648	39.02
1.20315	39.02
1.21982	39.02
1.23648	39.02
1.25315	39.02
1.26982	39.01
1.28648	39.01
1.30315	39.01
1.31982	39.02
1.33648	39.02
1.35315	39.02
1.36982	39.02
1.38648	39.02
1.40315	39.02
1.41982	39.02
1.43648	39.02
1.45315	39.02
1.46982	39.02
1.48648	39.02
1.50315	39.02
1.51982	39.02
1.53648	39.02
1.55315	39.02
1.56982	39.02
1.58648	39.02
1.60315	39.02
1.61982	39.01
1.63648	38.99
1.65315	38.97
1.66982	38.94
1.68648	38.90
1.70315	38.87
1.71982	38.83
1.73648	38.80
1.75315	38.77
1.76982	38.74
1.78648	38.71
1.80315	38.67
1.81982	38.64
1.83648	38.61
1.85315	38.58
1.86982	38.55
1.88648	38.52
1.90315	38.49
1.91982	38.46
1.93648	38.43
1.95315	38.40
1.96982	38.37
1.98648	38.34
2.00315	38.31
2.01982	38.27
2.03648	38.25
2.05315	38.22
2.06982	38.19
2.08648	38.16
2.10315	38.13
2.11982	38.10
2.13648	38.07
2.15315	38.04
2.16982	38.01
2.18648	37.98
2.20315	37.95
2.21982	37.92
2.23648	37.89
2.25315	37.86
2.26982	37.83
2.28648	37.81
2.30315	37.78
2.31982	37.74
2.33648	37.71
2.35315	37.69
2.36982	37.67
2.38648	37.65
2.40315	37.65
2.41982	37.65
2.43648	37.66
2.45315	37.65
2.46982	37.65
2.48648	37.65
2.50315	37.63
2.51982	37.65
2.53648	37.65
2.55315	37.65
2.56982	37.65
2.58648	37.65
2.60315	37.65
2.61982	37.65
2.63648	37.65
2.65315	37.64
2.66982	37.65
2.68648	37.65
2.70315	37.65
2.71982	37.64
2.73648	37.64
2.75315	37.64
2.76982	37.64
2.78648	37.64
2.80315	37.64
2.81982	37.64
2.83648	37.64
2.85315	37.64
2.86982	37.64
2.88648	37.64
2.90315	37.64
2.91982	37.64
2.93648	37.63
2.95315	37.63
2.96982	37.63
2.98648	37.63
3.00315	37.63
3.01982	37.63
3.03648	37.63
3.05315	37.63
3.06982	37.63
3.08648	37.63
3.10315	37.63
3.11982	37.63
3.13648	37.63
3.15315	37.62
3.16982	37.62
3.18648	37.62
3.20315	37.62
3.21982	37.62
3.23648	37.62
3.25315	37.62
3.26982	37.62
3.28648	37.62
3.30315	37.62
3.31982	37.62
3.33648	37.62
3.35315	37.63
3.36982	37.63
3.38648	37.63
3.40315	37.63
3.41982	37.63
3.43648	37.63
3.45315	37.63
3.46982	37.63
3.48648	37.63
3.50315	37.63
3.51982	37.63
3.53648	37.63
3.55315	37.63
3.56982	37.63
3.58648	37.63
3.60315	37.63
3.61982	37.63
3.63648	37.63
3.65315	37.63
3.66982	37.63
3.68648	37.63
3.70315	37.63
3.71982	37.63
3.73648	37.63
3.75315	37.63
3.76982	37.62
3.78648	37.62
3.80315	37.62
3.81982	37.62
3.83648	37.62
3.85315	37.63
3.86982	37.62
3.88648	37.62
3.90315	37.63
3.91982	37.63
3.93648	37.63
3.95315	37.63
3.96982	37.63
3.98648	37.63

