[Header]
Application Name	LabSolutions
Version	5.110
Data File Name	C:\Users\User\Desktop\GC Analyses\Jack\Nachusa Grasslands Sampling\T3 Timepoint July 12th\T3_07122022_072.gcd
Output Date	3/14/2023
Output Time	3:43:35 PM

[File Information]
Type	Data File
Generated	3/13/2023 10:32:19 PM
Generated by	System Administrator
Modified	3/13/2023 10:38:56 PM
Modified by	System Administrator

[Sample Information]
Operator Name	System Administrator
Acquired	3/13/2023 10:34:54 PM
Sample Type	0:Unknown
Level	0
Sample Name	072
Sample ID	072
ISTD Amount1	1
ISTD Amount2	1
ISTD Amount3	1
ISTD Amount4	1
ISTD Amount5	1
ISTD Amount6	1
ISTD Amount7	1
ISTD Amount8	1
ISTD Amount9	1
ISTD Amount10	1
ISTD Amount11	1
ISTD Amount12	1
ISTD Amount13	1
ISTD Amount14	1
ISTD Amount15	1
ISTD Amount16	1
ISTD Amount17	1
ISTD Amount18	1
ISTD Amount19	1
ISTD Amount20	1
ISTD Amount21	1
ISTD Amount22	1
ISTD Amount23	1
ISTD Amount24	1
ISTD Amount25	1
ISTD Amount26	1
ISTD Amount27	1
ISTD Amount28	1
ISTD Amount29	1
ISTD Amount30	1
ISTD Amount31	1
ISTD Amount32	1
Sample Amount	1
Dilution Factor	1
Vial#	71
Injection Volume	1
Injection Count	1
Bar Code	

[Original Files]
Data File	C:\Users\User\Desktop\GC Analyses\Jack\Nachusa Grasslands Sampling\T3 Timepoint July 12th\T3_07122022_072.gcd
Method File	C:\LabSolutions\Data\GHG_4min_2022\ghg3_togas_w_acet_4 min_new_int.gcm
Batch File	C:\LabSolutions\Data\AutoSamplerTesting\T3_07122022.gcb
Report Format File	c:\LabSolutions\System\DEFAULT.lsr

[File Description]


[Configuration]
Instrument Name	C0B7VH3-Instrument1
Instrument #	1
Line #	1
# of Detectors	3
Detector ID	DET#1	DET#2	DET#3
Detector Name	FID	PTCD	ECD
# of Channels	1	1	1

[Peak Table(Ch1)]
# of Peaks	3
Peak#	R.Time	I.Time	F.Time	Area	Height	A/H	Conc.	Mark	ID#	Name	k'	Plate #	Plate Ht.	Tailing	Resolution	Sep.Factor	Area Ratio	Height Ratio	Conc. %	Norm Conc.
1	1.476	1.443	1.538	36139	17932	2.015	255.146	   	1	CO	0.000	9814	15.284	1.296	0.000	0.000	0	0	23.826	23.826
2	1.571	1.538	1.611	3991	2102	1.899	77.164	   	2	CH4	0.065	12133	12.363	1.114	1.635	0.000	0	0	7.206	7.206
3	2.000	1.952	2.389	2942812	1410912	2.086	738.566	   	3	CO2	0.355	17543	8.550	1.182	7.305	5.500	0	0	68.968	68.968

[Peak Table(Ch2)]
# of Peaks	0

[Peak Table(Ch3)]
# of Peaks	5
Peak#	R.Time	I.Time	F.Time	Area	Height	A/H	Conc.	Mark	ID#	Name	k'	Plate #	Plate Ht.	Tailing	Resolution	Sep.Factor	Area Ratio	Height Ratio	Conc. %	Norm Conc.
1	2.462	2.337	2.510	2134	701	3.046	0.000	   			0.000	11384	13.176	0.000	0.000	0.000	0	0	0.000	0.000
2	2.528	2.510	2.572	915	343	2.665	0.000	 V 			0.027	7123	21.060	0.000	0.622	0.000	0	0	0.000	0.000
3	2.601	2.572	2.678	601	146	4.117	0.000	 V 			0.057	1957	76.661	0.000	0.413	2.111	0	0	0.000	0.000
4	2.880	2.792	3.096	18764	4958	3.785	0.479	   	1	N2O	0.170	13236	11.333	1.522	1.662	3.000	0	0	100.000	100.000
5	3.474	3.173	3.672	1946	101	19.269	0.000	   			0.411	664	225.901	0.850	1.858	2.421	0	0	0.000	0.000

[Compound Results(Ch1)]
# of IDs	6
ID#	Name	R.Time	Area	Height	Conc.	Curve	3rd	2nd	1st	Constant	Area Ratio	Height Ratio	Conc. %	Norm Conc.
1	CO	1.476	36139	17932	255.146	Linear	0.000000e+00	0.000000e+00	1.416423e+002	0.000000e+00	0	0	23.826	23.826
2	CH4	1.571	3991	2102	77.164	Linear	0.000000e+00	0.000000e+00	5.171738e+001	0.000000e+00	0	0	7.206	7.206
3	CO2	2.000	2942812	1410912	738.566	Linear	0.000000e+00	0.000000e+00	3.984494e+003	0.000000e+00	0	0	68.968	68.968
4	Ethylene	0.000	0	0	0.000	Linear	0.000000e+00	0.000000e+00	0.000000e+00	0.000000e+00	0	0	0.000	0.000
5	Acetylene	0.000	0	0	0.000	Linear	0.000000e+00	0.000000e+00	0.000000e+00	0.000000e+00	0	0	0.000	0.000
6	Ethane	0.000	0	0	0.000	Linear	0.000000e+00	0.000000e+00	0.000000e+00	0.000000e+00	0	0	0.000	0.000

[Compound Results(Ch2)]
# of IDs	5
ID#	Name	R.Time	Area	Height	Conc.	Curve	3rd	2nd	1st	Constant	Area Ratio	Height Ratio	Conc. %	Norm Conc.
1	Hydrogen	0.000	0	0	0.000	Linear	0.000000e+00	0.000000e+00	0.000000e+00	0.000000e+00	0	0	0.000	0.000
2	Oxygen	0.000	0	0	0.000	Linear	0.000000e+00	0.000000e+00	0.000000e+00	0.000000e+00	0	0	0.000	0.000
3	Nitrogen	0.000	0	0	0.000	Linear	0.000000e+00	0.000000e+00	0.000000e+00	0.000000e+00	0	0	0.000	0.000
4	Methane	0.000	0	0	0.000	Linear	0.000000e+00	0.000000e+00	0.000000e+00	0.000000e+00	0	0	0.000	0.000
5	Carbon Monoxide	0.000	0	0	0.000	Linear	0.000000e+00	0.000000e+00	0.000000e+00	0.000000e+00	0	0	0.000	0.000

[Compound Results(Ch3)]
# of IDs	2
ID#	Name	R.Time	Area	Height	Conc.	Curve	3rd	2nd	1st	Constant	Area Ratio	Height Ratio	Conc. %	Norm Conc.
1	N2O	2.880	18764	4958	0.479	Linear	0.000000e+00	0.000000e+00	3.915173e+004	0.000000e+00	0	0	100.000	100.000
2	SF6	0.000	0	0	0.000	Linear	0.000000e+00	0.000000e+00	0.000000e+00	0.000000e+00	0	0	0.000	0.000

[Group Results(Ch1)]
# of Groups	0

[Group Results(Ch2)]
# of Groups	0

[Group Results(Ch3)]
# of Groups	0

[Chromatogram (Ch1)]
Interval(msec)	220
# of Points	1091
Start Time(min)	0.002
End Time(min)	3.998
R.Time (min)	Intensity
0.00167	26
0.00533	32
0.00900	35
0.01267	33
0.01633	33
0.02000	30
0.02367	26
0.02733	17
0.03100	5
0.03467	-7
0.03833	-15
0.04200	-15
0.04567	-10
0.04933	-3
0.05300	-1
0.05667	-3
0.06033	-6
0.06400	-6
0.06767	-7
0.07133	-6
0.07500	-3
0.07867	-2
0.08233	3
0.08600	6
0.08967	10
0.09333	16
0.09700	21
0.10067	23
0.10433	22
0.10800	20
0.11167	18
0.11533	19
0.11900	25
0.12267	25
0.12633	19
0.13000	14
0.13367	13
0.13733	15
0.14100	17
0.14467	17
0.14833	18
0.15200	21
0.15567	23
0.15933	20
0.16300	13
0.16667	4
0.17033	-1
0.17400	-0
0.17767	3
0.18133	2
0.18500	-0
0.18867	-1
0.19233	1
0.19600	4
0.19967	8
0.20333	9
0.20700	6
0.21067	1
0.21433	-2
0.21800	-2
0.22167	5
0.22533	15
0.22900	19
0.23267	11
0.23633	-1
0.24000	-4
0.24367	0
0.24733	6
0.25100	10
0.25467	13
0.25833	18
0.26200	22
0.26567	25
0.26933	26
0.27300	25
0.27667	24
0.28033	21
0.28400	20
0.28767	23
0.29133	23
0.29500	29
0.29867	34
0.30233	32
0.30600	28
0.30967	27
0.31333	29
0.31700	31
0.32067	32
0.32433	27
0.32800	23
0.33167	22
0.33533	23
0.33900	26
0.34267	35
0.34633	44
0.35000	44
0.35367	35
0.35733	25
0.36100	23
0.36467	27
0.36833	30
0.37200	29
0.37567	25
0.37933	20
0.38300	14
0.38667	12
0.39033	17
0.39400	26
0.39767	37
0.40133	44
0.40500	45
0.40867	43
0.41233	45
0.41600	49
0.41967	45
0.42333	40
0.42700	37
0.43067	36
0.43433	34
0.43800	32
0.44167	29
0.44533	22
0.44900	16
0.45267	12
0.45633	13
0.46000	16
0.46367	16
0.46733	14
0.47100	12
0.47467	13
0.47833	14
0.48200	16
0.48567	13
0.48933	7
0.49300	1
0.49667	1
0.50033	4
0.50400	9
0.50767	16
0.51133	23
0.51500	29
0.51867	32
0.52233	28
0.52600	20
0.52967	8
0.53333	-2
0.53700	-7
0.54067	-8
0.54433	-5
0.54800	3
0.55167	12
0.55533	18
0.55900	25
0.56267	29
0.56633	34
0.57000	42
0.57367	47
0.57733	45
0.58100	38
0.58467	31
0.58833	27
0.59200	24
0.59567	19
0.59933	12
0.60300	9
0.60667	11
0.61033	10
0.61400	6
0.61767	4
0.62133	6
0.62500	10
0.62867	19
0.63233	26
0.63600	23
0.63967	19
0.64333	14
0.64700	7
0.65067	3
0.65433	4
0.65800	9
0.66167	19
0.66533	31
0.66900	37
0.67267	33
0.67633	25
0.68000	17
0.68367	10
0.68733	6
0.69100	7
0.69467	8
0.69833	10
0.70200	9
0.70567	7
0.70933	12
0.71300	21
0.71667	30
0.72033	35
0.72400	35
0.72767	34
0.73133	27
0.73500	23
0.73867	22
0.74233	15
0.74600	5
0.74967	-1
0.75333	-3
0.75700	-8
0.76067	-13
0.76433	-10
0.76800	-9
0.77167	-15
0.77533	-18
0.77900	-15
0.78267	-6
0.78633	-1
0.79000	0
0.79367	1
0.79733	-4
0.80100	-10
0.80467	-11
0.80833	-8
0.81200	-3
0.81567	4
0.81933	12
0.82300	15
0.82667	14
0.83033	11
0.83400	12
0.83767	13
0.84133	11
0.84500	5
0.84867	-1
0.85233	-4
0.85600	-2
0.85967	5
0.86333	9
0.86700	10
0.87067	6
0.87433	2
0.87800	1
0.88167	3
0.88533	4
0.88900	0
0.89267	-1
0.89633	2
0.90000	1
0.90367	-5
0.90733	-14
0.91100	-25
0.91467	-29
0.91833	-25
0.92200	-12
0.92567	1
0.92933	-2
0.93300	-13
0.93667	-20
0.94033	-20
0.94400	-13
0.94767	-6
0.95133	-2
0.95500	-0
0.95867	1
0.96233	5
0.96600	7
0.96967	4
0.97333	1
0.97700	1
0.98067	9
0.98433	27
0.98800	43
0.99167	48
0.99533	42
0.99900	41
1.00267	47
1.00633	54
1.01000	54
1.01367	48
1.01733	40
1.02100	29
1.02467	22
1.02833	15
1.03200	11
1.03567	10
1.03933	16
1.04300	25
1.04667	31
1.05033	31
1.05400	31
1.05767	33
1.06133	35
1.06500	35
1.06867	37
1.07233	38
1.07600	37
1.07967	35
1.08333	32
1.08700	30
1.09067	29
1.09433	29
1.09800	26
1.10167	23
1.10533	24
1.10900	28
1.11267	27
1.11633	22
1.12000	21
1.12367	23
1.12733	23
1.13100	24
1.13467	28
1.13833	33
1.14200	37
1.14567	43
1.14933	49
1.15300	52
1.15667	50
1.16033	47
1.16400	43
1.16767	41
1.17133	36
1.17500	27
1.17867	22
1.18233	22
1.18600	22
1.18967	21
1.19333	21
1.19700	24
1.20067	29
1.20433	30
1.20800	29
1.21167	25
1.21533	22
1.21900	19
1.22267	17
1.22633	11
1.23000	8
1.23367	7
1.23733	7
1.24100	7
1.24467	9
1.24833	17
1.25200	28
1.25567	38
1.25933	42
1.26300	44
1.26667	45
1.27033	46
1.27400	42
1.27767	32
1.28133	21
1.28500	14
1.28867	8
1.29233	7
1.29600	14
1.29967	21
1.30333	28
1.30700	35
1.31067	38
1.31433	36
1.31800	34
1.32167	34
1.32533	34
1.32900	28
1.33267	23
1.33633	21
1.34000	16
1.34367	9
1.34733	6
1.35100	11
1.35467	16
1.35833	17
1.36200	17
1.36567	16
1.36933	10
1.37300	-0
1.37667	-12
1.38033	-20
1.38400	-24
1.38767	-25
1.39133	-30
1.39500	-31
1.39867	-32
1.40233	-34
1.40600	-31
1.40967	-24
1.41333	-19
1.41700	-10
1.42067	4
1.42433	19
1.42800	32
1.43167	41
1.43533	43
1.43900	43
1.44267	69
1.44633	210
1.45000	708
1.45367	2074
1.45733	4700
1.46100	8197
1.46467	11743
1.46833	14723
1.47200	16852
1.47567	17960
1.47933	17874
1.48300	16549
1.48667	14239
1.49033	11440
1.49400	8669
1.49767	6269
1.50133	4374
1.50500	2971
1.50867	1974
1.51233	1283
1.51600	809
1.51967	488
1.52333	273
1.52700	130
1.53067	36
1.53433	-24
1.53800	-49
1.54167	-25
1.54533	97
1.54900	361
1.55267	748
1.55633	1174
1.56000	1556
1.56367	1846
1.56733	2024
1.57100	2068
1.57467	1950
1.57833	1686
1.58200	1339
1.58567	988
1.58933	686
1.59300	456
1.59667	288
1.60033	169
1.60400	84
1.60767	25
1.61133	-16
1.61500	-43
1.61867	-59
1.62233	-66
1.62600	-68
1.62967	-66
1.63333	-63
1.63700	-63
1.64067	-65
1.64433	-67
1.64800	-69
1.65167	-69
1.65533	-65
1.65900	-65
1.66267	-68
1.66633	-70
1.67000	-70
1.67367	-66
1.67733	-62
1.68100	-62
1.68467	-64
1.68833	-65
1.69200	-68
1.69567	-73
1.69933	-77
1.70300	-74
1.70667	-67
1.71033	-61
1.71400	-55
1.71767	-54
1.72133	-53
1.72500	-50
1.72867	-44
1.73233	-42
1.73600	-44
1.73967	-47
1.74333	-51
1.74700	-56
1.75067	-59
1.75433	-60
1.75800	-61
1.76167	-63
1.76533	-60
1.76900	-56
1.77267	-54
1.77633	-55
1.78000	-57
1.78367	-55
1.78733	-46
1.79100	-37
1.79467	-42
1.79833	-48
1.80200	-50
1.80567	-49
1.80933	-45
1.81300	-41
1.81667	-41
1.82033	-42
1.82400	-42
1.82767	-37
1.83133	-32
1.83500	-22
1.83867	-12
1.84233	-9
1.84600	-14
1.84967	-24
1.85333	-34
1.85700	-38
1.86067	-39
1.86433	-41
1.86800	-43
1.87167	-38
1.87533	-26
1.87900	-14
1.88267	-9
1.88633	-15
1.89000	-23
1.89367	-31
1.89733	-37
1.90100	-41
1.90467	-39
1.90833	-32
1.91200	-26
1.91567	-23
1.91933	-19
1.92300	-13
1.92667	-8
1.93033	-5
1.93400	-7
1.93767	-8
1.94133	-10
1.94500	-15
1.94867	-19
1.95233	-10
1.95600	90
1.95967	757
1.96333	4262
1.96700	18242
1.97067	60731
1.97433	159524
1.97800	335798
1.98167	581528
1.98533	857469
1.98900	1112954
1.99267	1305883
1.99633	1408905
2.00000	1410939
2.00367	1318292
2.00733	1153569
2.01100	949843
2.01467	741012
2.01833	552747
2.02200	398307
2.02567	280121
2.02933	194113
2.03300	133684
2.03667	92205
2.04033	64132
2.04400	45256
2.04767	32570
2.05133	23996
2.05500	18144
2.05867	14090
2.06233	11232
2.06600	9171
2.06967	7646
2.07333	6494
2.07700	5609
2.08067	4908
2.08433	4340
2.08800	3878
2.09167	3498
2.09533	3183
2.09900	2916
2.10267	2687
2.10633	2486
2.11000	2311
2.11367	2159
2.11733	2023
2.12100	1895
2.12467	1780
2.12833	1675
2.13200	1581
2.13567	1497
2.13933	1418
2.14300	1346
2.14667	1286
2.15033	1234
2.15400	1182
2.15767	1136
2.16133	1097
2.16500	1063
2.16867	1029
2.17233	994
2.17600	960
2.17967	931
2.18333	902
2.18700	869
2.19067	837
2.19433	809
2.19800	786
2.20167	763
2.20533	738
2.20900	713
2.21267	689
2.21633	670
2.22000	653
2.22367	637
2.22733	628
2.23100	623
2.23467	617
2.23833	607
2.24200	594
2.24567	582
2.24933	568
2.25300	556
2.25667	547
2.26033	537
2.26400	528
2.26767	516
2.27133	507
2.27500	502
2.27867	500
2.28233	495
2.28600	487
2.28967	482
2.29333	478
2.29700	471
2.30067	466
2.30433	467
2.30800	465
2.31167	456
2.31533	444
2.31900	432
2.32267	420
2.32633	406
2.33000	393
2.33367	386
2.33733	386
2.34100	391
2.34467	395
2.34833	395
2.35200	393
2.35567	392
2.35933	393
2.36300	396
2.36667	395
2.37033	387
2.37400	374
2.37767	362
2.38133	353
2.38500	342
2.38867	331
2.39233	326
2.39600	329
2.39967	337
2.40333	343
2.40700	349
2.41067	353
2.41433	357
2.41800	361
2.42167	363
2.42533	360
2.42900	353
2.43267	344
2.43633	334
2.44000	326
2.44367	321
2.44733	318
2.45100	318
2.45467	320
2.45833	319
2.46200	315
2.46567	313
2.46933	309
2.47300	305
2.47667	305
2.48033	309
2.48400	312
2.48767	310
2.49133	303
2.49500	295
2.49867	288
2.50233	283
2.50600	284
2.50967	287
2.51333	290
2.51700	290
2.52067	290
2.52433	295
2.52800	304
2.53167	309
2.53533	311
2.53900	309
2.54267	309
2.54633	305
2.55000	298
2.55367	299
2.55733	299
2.56100	299
2.56467	301
2.56833	303
2.57200	302
2.57567	302
2.57933	301
2.58300	295
2.58667	287
2.59033	282
2.59400	282
2.59767	289
2.60133	297
2.60500	300
2.60867	299
2.61233	299
2.61600	297
2.61967	293
2.62333	290
2.62700	288
2.63067	281
2.63433	275
2.63800	273
2.64167	274
2.64533	274
2.64900	277
2.65267	281
2.65633	286
2.66000	292
2.66367	296
2.66733	292
2.67100	285
2.67467	280
2.67833	284
2.68200	289
2.68567	287
2.68933	287
2.69300	288
2.69667	289
2.70033	293
2.70400	300
2.70767	305
2.71133	305
2.71500	303
2.71867	298
2.72233	295
2.72600	294
2.72967	297
2.73333	304
2.73700	305
2.74067	303
2.74433	305
2.74800	311
2.75167	318
2.75533	321
2.75900	319
2.76267	317
2.76633	315
2.77000	313
2.77367	308
2.77733	300
2.78100	298
2.78467	298
2.78833	298
2.79200	301
2.79567	309
2.79933	319
2.80300	325
2.80667	326
2.81033	324
2.81400	321
2.81767	313
2.82133	304
2.82500	296
2.82867	288
2.83233	288
2.83600	296
2.83967	305
2.84333	310
2.84700	311
2.85067	312
2.85433	312
2.85800	312
2.86167	310
2.86533	311
2.86900	315
2.87267	321
2.87633	326
2.88000	330
2.88367	333
2.88733	332
2.89100	329
2.89467	329
2.89833	328
2.90200	326
2.90567	325
2.90933	325
2.91300	323
2.91667	326
2.92033	330
2.92400	333
2.92767	331
2.93133	324
2.93500	316
2.93867	312
2.94233	312
2.94600	315
2.94967	320
2.95333	325
2.95700	328
2.96067	332
2.96433	331
2.96800	329
2.97167	331
2.97533	336
2.97900	341
2.98267	342
2.98633	342
2.99000	341
2.99367	338
2.99733	341
3.00100	343
3.00467	344
3.00833	340
3.01200	336
3.01567	331
3.01933	322
3.02300	313
3.02667	308
3.03033	306
3.03400	305
3.03767	304
3.04133	305
3.04500	310
3.04867	319
3.05233	328
3.05600	333
3.05967	331
3.06333	329
3.06700	329
3.07067	328
3.07433	325
3.07800	322
3.08167	321
3.08533	323
3.08900	325
3.09267	330
3.09633	339
3.10000	344
3.10367	343
3.10733	340
3.11100	334
3.11467	326
3.11833	319
3.12200	320
3.12567	325
3.12933	329
3.13300	327
3.13667	323
3.14033	322
3.14400	324
3.14767	327
3.15133	334
3.15500	336
3.15867	334
3.16233	332
3.16600	329
3.16967	324
3.17333	320
3.17700	322
3.18067	324
3.18433	324
3.18800	324
3.19167	323
3.19533	319
3.19900	308
3.20267	296
3.20633	289
3.21000	293
3.21367	303
3.21733	311
3.22100	314
3.22467	317
3.22833	318
3.23200	321
3.23567	329
3.23933	338
3.24300	337
3.24667	331
3.25033	326
3.25400	322
3.25767	318
3.26133	312
3.26500	305
3.26867	301
3.27233	304
3.27600	308
3.27967	310
3.28333	312
3.28700	310
3.29067	305
3.29433	302
3.29800	304
3.30167	307
3.30533	310
3.30900	316
3.31267	317
3.31633	312
3.32000	305
3.32367	302
3.32733	305
3.33100	309
3.33467	314
3.33833	315
3.34200	312
3.34567	303
3.34933	291
3.35300	284
3.35667	282
3.36033	282
3.36400	282
3.36767	283
3.37133	284
3.37500	288
3.37867	291
3.38233	294
3.38600	296
3.38967	298
3.39333	302
3.39700	306
3.40067	305
3.40433	301
3.40800	297
3.41167	296
3.41533	294
3.41900	292
3.42267	292
3.42633	293
3.43000	298
3.43367	302
3.43733	303
3.44100	299
3.44467	293
3.44833	287
3.45200	280
3.45567	273
3.45933	266
3.46300	264
3.46667	264
3.47033	268
3.47400	278
3.47767	286
3.48133	286
3.48500	283
3.48867	282
3.49233	281
3.49600	272
3.49967	260
3.50333	255
3.50700	259
3.51067	268
3.51433	279
3.51800	288
3.52167	294
3.52533	295
3.52900	290
3.53267	283
3.53633	280
3.54000	280
3.54367	278
3.54733	274
3.55100	268
3.55467	262
3.55833	259
3.56200	260
3.56567	263
3.56933	267
3.57300	273
3.57667	279
3.58033	283
3.58400	282
3.58767	279
3.59133	276
3.59500	272
3.59867	268
3.60233	268
3.60600	269
3.60967	271
3.61333	272
3.61700	268
3.62067	267
3.62433	272
3.62800	278
3.63167	276
3.63533	273
3.63900	272
3.64267	275
3.64633	274
3.65000	272
3.65367	272
3.65733	273
3.66100	271
3.66467	266
3.66833	260
3.67200	258
3.67567	255
3.67933	250
3.68300	246
3.68667	246
3.69033	248
3.69400	248
3.69767	247
3.70133	246
3.70500	245
3.70867	246
3.71233	250
3.71600	251
3.71967	250
3.72333	248
3.72700	249
3.73067	250
3.73433	247
3.73800	240
3.74167	239
3.74533	240
3.74900	243
3.75267	250
3.75633	260
3.76000	268
3.76367	270
3.76733	265
3.77100	258
3.77467	248
3.77833	240
3.78200	236
3.78567	235
3.78933	240
3.79300	245
3.79667	247
3.80033	249
3.80400	249
3.80767	251
3.81133	257
3.81500	266
3.81867	267
3.82233	262
3.82600	256
3.82967	251
3.83333	247
3.83700	245
3.84067	243
3.84433	241
3.84800	237
3.85167	233
3.85533	230
3.85900	234
3.86267	238
3.86633	239
3.87000	238
3.87367	235
3.87733	229
3.88100	225
3.88467	222
3.88833	218
3.89200	215
3.89567	213
3.89933	209
3.90300	199
3.90667	195
3.91033	201
3.91400	211
3.91767	216
3.92133	214
3.92500	211
3.92867	209
3.93233	208
3.93600	205
3.93967	201
3.94333	201
3.94700	203
3.95067	208
3.95433	216
3.95800	224
3.96167	227
3.96533	230
3.96900	233
3.97267	235
3.97633	232
3.98000	227
3.98367	226
3.98733	225
3.99100	228
3.99467	232
3.99833	236

[Chromatogram (Ch2)]
Interval(msec)	220
# of Points	1091
Start Time(min)	0.002
End Time(min)	3.998
R.Time (min)	Intensity
0.00167	0
0.00533	0
0.00900	0
0.01267	0
0.01633	0
0.02000	0
0.02367	0
0.02733	0
0.03100	1
0.03467	1
0.03833	0
0.04200	0
0.04567	-0
0.04933	-1
0.05300	-1
0.05667	-1
0.06033	-1
0.06400	-1
0.06767	-2
0.07133	-2
0.07500	-2
0.07867	-2
0.08233	-2
0.08600	-2
0.08967	-2
0.09333	-2
0.09700	-2
0.10067	-2
0.10433	-2
0.10800	-2
0.11167	-2
0.11533	-2
0.11900	-2
0.12267	-2
0.12633	-1
0.13000	-1
0.13367	0
0.13733	1
0.14100	1
0.14467	2
0.14833	2
0.15200	2
0.15567	3
0.15933	3
0.16300	4
0.16667	4
0.17033	4
0.17400	4
0.17767	4
0.18133	4
0.18500	3
0.18867	3
0.19233	2
0.19600	2
0.19967	2
0.20333	1
0.20700	1
0.21067	1
0.21433	1
0.21800	1
0.22167	1
0.22533	1
0.22900	1
0.23267	1
0.23633	1
0.24000	1
0.24367	1
0.24733	2
0.25100	2
0.25467	2
0.25833	1
0.26200	1
0.26567	1
0.26933	1
0.27300	1
0.27667	1
0.28033	1
0.28400	1
0.28767	1
0.29133	1
0.29500	0
0.29867	0
0.30233	0
0.30600	0
0.30967	-0
0.31333	-0
0.31700	-0
0.32067	-0
0.32433	0
0.32800	0
0.33167	0
0.33533	0
0.33900	0
0.34267	0
0.34633	0
0.35000	0
0.35367	0
0.35733	0
0.36100	0
0.36467	0
0.36833	0
0.37200	0
0.37567	0
0.37933	0
0.38300	0
0.38667	-0
0.39033	-0
0.39400	-0
0.39767	-0
0.40133	-1
0.40500	-1
0.40867	-1
0.41233	-1
0.41600	-2
0.41967	-2
0.42333	-2
0.42700	-2
0.43067	-2
0.43433	-2
0.43800	-2
0.44167	-1
0.44533	-1
0.44900	-1
0.45267	-1
0.45633	-1
0.46000	-1
0.46367	-1
0.46733	-1
0.47100	-2
0.47467	-2
0.47833	-2
0.48200	-2
0.48567	-3
0.48933	-3
0.49300	-3
0.49667	-3
0.50033	-2
0.50400	-1
0.50767	-1
0.51133	-0
0.51500	-0
0.51867	0
0.52233	1
0.52600	1
0.52967	1
0.53333	1
0.53700	2
0.54067	2
0.54433	2
0.54800	3
0.55167	3
0.55533	3
0.55900	3
0.56267	3
0.56633	3
0.57000	3
0.57367	3
0.57733	3
0.58100	3
0.58467	2
0.58833	2
0.59200	2
0.59567	2
0.59933	1
0.60300	1
0.60667	1
0.61033	1
0.61400	0
0.61767	0
0.62133	0
0.62500	0
0.62867	0
0.63233	-0
0.63600	-0
0.63967	-1
0.64333	-1
0.64700	-1
0.65067	-1
0.65433	-1
0.65800	-1
0.66167	-0
0.66533	-0
0.66900	-0
0.67267	0
0.67633	0
0.68000	1
0.68367	1
0.68733	1
0.69100	1
0.69467	1
0.69833	1
0.70200	0
0.70567	0
0.70933	0
0.71300	1
0.71667	1
0.72033	1
0.72400	1
0.72767	1
0.73133	2
0.73500	2
0.73867	2
0.74233	2
0.74600	2
0.74967	2
0.75333	2
0.75700	1
0.76067	1
0.76433	1
0.76800	0
0.77167	-0
0.77533	-1
0.77900	-1
0.78267	-1
0.78633	-2
0.79000	-2
0.79367	-2
0.79733	-2
0.80100	-1
0.80467	-1
0.80833	-1
0.81200	-1
0.81567	-1
0.81933	-1
0.82300	-0
0.82667	-0
0.83033	-0
0.83400	0
0.83767	0
0.84133	1
0.84500	1
0.84867	1
0.85233	1
0.85600	1
0.85967	1
0.86333	1
0.86700	2
0.87067	2
0.87433	2
0.87800	2
0.88167	2
0.88533	2
0.88900	2
0.89267	2
0.89633	2
0.90000	2
0.90367	3
0.90733	3
0.91100	3
0.91467	4
0.91833	4
0.92200	4
0.92567	5
0.92933	5
0.93300	5
0.93667	5
0.94033	5
0.94400	4
0.94767	4
0.95133	4
0.95500	4
0.95867	3
0.96233	3
0.96600	3
0.96967	2
0.97333	2
0.97700	2
0.98067	1
0.98433	1
0.98800	1
0.99167	1
0.99533	1
0.99900	1
1.00267	1
1.00633	1
1.01000	1
1.01367	1
1.01733	1
1.02100	0
1.02467	-0
1.02833	-1
1.03200	-1
1.03567	-1
1.03933	-1
1.04300	-2
1.04667	-2
1.05033	-3
1.05400	-3
1.05767	-3
1.06133	-3
1.06500	-3
1.06867	-3
1.07233	-3
1.07600	-3
1.07967	-3
1.08333	-3
1.08700	-3
1.09067	-3
1.09433	-3
1.09800	-3
1.10167	-3
1.10533	-3
1.10900	-2
1.11267	-2
1.11633	-1
1.12000	-1
1.12367	-0
1.12733	-0
1.13100	0
1.13467	1
1.13833	1
1.14200	2
1.14567	2
1.14933	2
1.15300	2
1.15667	2
1.16033	2
1.16400	2
1.16767	2
1.17133	2
1.17500	2
1.17867	3
1.18233	3
1.18600	3
1.18967	3
1.19333	4
1.19700	4
1.20067	3
1.20433	3
1.20800	3
1.21167	3
1.21533	3
1.21900	3
1.22267	2
1.22633	2
1.23000	2
1.23367	2
1.23733	2
1.24100	2
1.24467	2
1.24833	2
1.25200	2
1.25567	1
1.25933	1
1.26300	1
1.26667	0
1.27033	0
1.27400	0
1.27767	0
1.28133	0
1.28500	0
1.28867	0
1.29233	0
1.29600	-0
1.29967	-1
1.30333	-1
1.30700	-1
1.31067	-2
1.31433	-2
1.31800	-2
1.32167	-3
1.32533	-3
1.32900	-3
1.33267	-2
1.33633	-2
1.34000	-2
1.34367	-2
1.34733	-2
1.35100	-2
1.35467	-3
1.35833	-3
1.36200	-3
1.36567	-2
1.36933	-2
1.37300	-2
1.37667	-1
1.38033	-1
1.38400	-1
1.38767	-0
1.39133	0
1.39500	1
1.39867	1
1.40233	1
1.40600	1
1.40967	0
1.41333	0
1.41700	-0
1.42067	-0
1.42433	-1
1.42800	-1
1.43167	-1
1.43533	-1
1.43900	-1
1.44267	-1
1.44633	-1
1.45000	-1
1.45367	-1
1.45733	-0
1.46100	-0
1.46467	-0
1.46833	-0
1.47200	-1
1.47567	-1
1.47933	-1
1.48300	-1
1.48667	-1
1.49033	-0
1.49400	-0
1.49767	-0
1.50133	-0
1.50500	-0
1.50867	0
1.51233	1
1.51600	1
1.51967	1
1.52333	1
1.52700	1
1.53067	1
1.53433	1
1.53800	1
1.54167	1
1.54533	0
1.54900	0
1.55267	0
1.55633	0
1.56000	0
1.56367	1
1.56733	1
1.57100	1
1.57467	1
1.57833	2
1.58200	2
1.58567	2
1.58933	1
1.59300	1
1.59667	0
1.60033	-1
1.60400	-2
1.60767	-4
1.61133	-6
1.61500	-8
1.61867	-10
1.62233	-13
1.62600	-16
1.62967	-20
1.63333	-23
1.63700	-27
1.64067	-31
1.64433	-35
1.64800	-39
1.65167	-43
1.65533	-47
1.65900	-50
1.66267	-54
1.66633	-58
1.67000	-62
1.67367	-66
1.67733	-71
1.68100	-75
1.68467	-79
1.68833	-83
1.69200	-86
1.69567	-89
1.69933	-91
1.70300	-93
1.70667	-95
1.71033	-98
1.71400	-100
1.71767	-103
1.72133	-105
1.72500	-106
1.72867	-108
1.73233	-108
1.73600	-109
1.73967	-108
1.74333	-108
1.74700	-108
1.75067	-107
1.75433	-106
1.75800	-105
1.76167	-104
1.76533	-103
1.76900	-102
1.77267	-101
1.77633	-101
1.78000	-102
1.78367	-103
1.78733	-104
1.79100	-105
1.79467	-106
1.79833	-108
1.80200	-109
1.80567	-110
1.80933	-111
1.81300	-112
1.81667	-112
1.82033	-112
1.82400	-113
1.82767	-113
1.83133	-113
1.83500	-114
1.83867	-114
1.84233	-114
1.84600	-114
1.84967	-114
1.85333	-113
1.85700	-113
1.86067	-112
1.86433	-112
1.86800	-111
1.87167	-111
1.87533	-110
1.87900	-109
1.88267	-109
1.88633	-108
1.89000	-108
1.89367	-109
1.89733	-109
1.90100	-109
1.90467	-109
1.90833	-109
1.91200	-109
1.91567	-109
1.91933	-109
1.92300	-108
1.92667	-108
1.93033	-108
1.93400	-108
1.93767	-108
1.94133	-108
1.94500	-108
1.94867	-108
1.95233	-108
1.95600	-107
1.95967	-107
1.96333	-106
1.96700	-106
1.97067	-106
1.97433	-106
1.97800	-106
1.98167	-106
1.98533	-106
1.98900	-106
1.99267	-106
1.99633	-106
2.00000	-105
2.00367	-104
2.00733	-103
2.01100	-102
2.01467	-102
2.01833	-102
2.02200	-102
2.02567	-102
2.02933	-102
2.03300	-101
2.03667	-100
2.04033	-100
2.04400	-99
2.04767	-99
2.05133	-98
2.05500	-98
2.05867	-98
2.06233	-98
2.06600	-98
2.06967	-97
2.07333	-97
2.07700	-97
2.08067	-97
2.08433	-97
2.08800	-97
2.09167	-98
2.09533	-98
2.09900	-98
2.10267	-97
2.10633	-97
2.11000	-97
2.11367	-96
2.11733	-95
2.12100	-95
2.12467	-94
2.12833	-94
2.13200	-94
2.13567	-94
2.13933	-94
2.14300	-94
2.14667	-94
2.15033	-94
2.15400	-94
2.15767	-94
2.16133	-93
2.16500	-93
2.16867	-92
2.17233	-92
2.17600	-91
2.17967	-90
2.18333	-90
2.18700	-89
2.19067	-89
2.19433	-88
2.19800	-88
2.20167	-87
2.20533	-87
2.20900	-86
2.21267	-86
2.21633	-85
2.22000	-85
2.22367	-86
2.22733	-86
2.23100	-86
2.23467	-87
2.23833	-86
2.24200	-86
2.24567	-86
2.24933	-85
2.25300	-85
2.25667	-84
2.26033	-84
2.26400	-84
2.26767	-83
2.27133	-83
2.27500	-83
2.27867	-83
2.28233	-83
2.28600	-82
2.28967	-82
2.29333	-81
2.29700	-80
2.30067	-79
2.30433	-78
2.30800	-77
2.31167	-76
2.31533	-75
2.31900	-74
2.32267	-74
2.32633	-74
2.33000	-75
2.33367	-75
2.33733	-76
2.34100	-77
2.34467	-78
2.34833	-78
2.35200	-77
2.35567	-76
2.35933	-74
2.36300	-72
2.36667	-70
2.37033	-67
2.37400	-63
2.37767	-59
2.38133	-55
2.38500	-50
2.38867	-46
2.39233	-41
2.39600	-36
2.39967	-31
2.40333	-27
2.40700	-23
2.41067	-19
2.41433	-16
2.41800	-13
2.42167	-11
2.42533	-9
2.42900	-8
2.43267	-7
2.43633	-6
2.44000	-5
2.44367	-4
2.44733	-4
2.45100	-3
2.45467	-2
2.45833	-1
2.46200	-1
2.46567	-0
2.46933	-0
2.47300	0
2.47667	1
2.48033	1
2.48400	2
2.48767	3
2.49133	4
2.49500	5
2.49867	6
2.50233	8
2.50600	9
2.50967	10
2.51333	11
2.51700	12
2.52067	13
2.52433	13
2.52800	14
2.53167	14
2.53533	14
2.53900	15
2.54267	15
2.54633	16
2.55000	16
2.55367	16
2.55733	16
2.56100	16
2.56467	16
2.56833	17
2.57200	17
2.57567	17
2.57933	18
2.58300	18
2.58667	18
2.59033	18
2.59400	18
2.59767	17
2.60133	17
2.60500	17
2.60867	16
2.61233	16
2.61600	16
2.61967	17
2.62333	17
2.62700	18
2.63067	18
2.63433	19
2.63800	19
2.64167	20
2.64533	20
2.64900	20
2.65267	21
2.65633	21
2.66000	20
2.66367	20
2.66733	20
2.67100	20
2.67467	21
2.67833	21
2.68200	21
2.68567	22
2.68933	22
2.69300	22
2.69667	23
2.70033	23
2.70400	24
2.70767	24
2.71133	25
2.71500	25
2.71867	25
2.72233	26
2.72600	26
2.72967	27
2.73333	27
2.73700	28
2.74067	28
2.74433	28
2.74800	28
2.75167	28
2.75533	28
2.75900	28
2.76267	28
2.76633	28
2.77000	28
2.77367	29
2.77733	29
2.78100	29
2.78467	29
2.78833	29
2.79200	29
2.79567	29
2.79933	29
2.80300	29
2.80667	29
2.81033	29
2.81400	29
2.81767	29
2.82133	29
2.82500	28
2.82867	28
2.83233	28
2.83600	27
2.83967	26
2.84333	25
2.84700	23
2.85067	19
2.85433	13
2.85800	4
2.86167	-9
2.86533	-25
2.86900	-46
2.87267	-71
2.87633	-100
2.88000	-134
2.88367	-172
2.88733	-214
2.89100	-260
2.89467	-308
2.89833	-359
2.90200	-412
2.90567	-466
2.90933	-521
2.91300	-576
2.91667	-631
2.92033	-686
2.92400	-740
2.92767	-792
2.93133	-842
2.93500	-895
2.93867	-952
2.94233	-1009
2.94600	-1058
2.94967	-1088
2.95333	-1093
2.95700	-1072
2.96067	-1029
2.96433	-969
2.96800	-897
2.97167	-818
2.97533	-738
2.97900	-658
2.98267	-582
2.98633	-511
2.99000	-445
2.99367	-386
2.99733	-333
3.00100	-286
3.00467	-244
3.00833	-208
3.01200	-176
3.01567	-149
3.01933	-125
3.02300	-104
3.02667	-86
3.03033	-71
3.03400	-58
3.03767	-47
3.04133	-37
3.04500	-30
3.04867	-23
3.05233	-17
3.05600	-12
3.05967	-8
3.06333	-4
3.06700	-1
3.07067	2
3.07433	4
3.07800	6
3.08167	8
3.08533	9
3.08900	11
3.09267	12
3.09633	13
3.10000	13
3.10367	14
3.10733	15
3.11100	16
3.11467	17
3.11833	18
3.12200	18
3.12567	19
3.12933	19
3.13300	19
3.13667	20
3.14033	20
3.14400	21
3.14767	21
3.15133	21
3.15500	22
3.15867	22
3.16233	22
3.16600	22
3.16967	22
3.17333	22
3.17700	23
3.18067	23
3.18433	23
3.18800	24
3.19167	24
3.19533	24
3.19900	24
3.20267	24
3.20633	23
3.21000	23
3.21367	23
3.21733	23
3.22100	23
3.22467	22
3.22833	22
3.23200	22
3.23567	22
3.23933	22
3.24300	22
3.24667	22
3.25033	22
3.25400	22
3.25767	22
3.26133	22
3.26500	22
3.26867	23
3.27233	23
3.27600	23
3.27967	23
3.28333	23
3.28700	24
3.29067	24
3.29433	24
3.29800	24
3.30167	25
3.30533	25
3.30900	25
3.31267	26
3.31633	26
3.32000	27
3.32367	27
3.32733	28
3.33100	28
3.33467	28
3.33833	28
3.34200	28
3.34567	29
3.34933	29
3.35300	29
3.35667	29
3.36033	29
3.36400	29
3.36767	28
3.37133	28
3.37500	28
3.37867	27
3.38233	27
3.38600	27
3.38967	26
3.39333	26
3.39700	26
3.40067	26
3.40433	26
3.40800	26
3.41167	27
3.41533	27
3.41900	27
3.42267	28
3.42633	28
3.43000	29
3.43367	29
3.43733	30
3.44100	30
3.44467	30
3.44833	30
3.45200	30
3.45567	30
3.45933	31
3.46300	31
3.46667	31
3.47033	31
3.47400	31
3.47767	31
3.48133	31
3.48500	31
3.48867	31
3.49233	31
3.49600	31
3.49967	31
3.50333	31
3.50700	31
3.51067	31
3.51433	30
3.51800	30
3.52167	30
3.52533	30
3.52900	30
3.53267	30
3.53633	30
3.54000	29
3.54367	29
3.54733	28
3.55100	28
3.55467	28
3.55833	28
3.56200	27
3.56567	27
3.56933	27
3.57300	27
3.57667	27
3.58033	27
3.58400	27
3.58767	27
3.59133	27
3.59500	27
3.59867	27
3.60233	27
3.60600	27
3.60967	28
3.61333	28
3.61700	28
3.62067	29
3.62433	29
3.62800	29
3.63167	29
3.63533	29
3.63900	29
3.64267	29
3.64633	29
3.65000	29
3.65367	29
3.65733	29
3.66100	29
3.66467	29
3.66833	29
3.67200	29
3.67567	29
3.67933	29
3.68300	30
3.68667	30
3.69033	30
3.69400	30
3.69767	30
3.70133	30
3.70500	30
3.70867	29
3.71233	29
3.71600	29
3.71967	29
3.72333	29
3.72700	29
3.73067	29
3.73433	28
3.73800	28
3.74167	28
3.74533	28
3.74900	28
3.75267	28
3.75633	28
3.76000	28
3.76367	28
3.76733	28
3.77100	28
3.77467	29
3.77833	28
3.78200	28
3.78567	28
3.78933	29
3.79300	29
3.79667	29
3.80033	29
3.80400	29
3.80767	29
3.81133	29
3.81500	29
3.81867	29
3.82233	28
3.82600	28
3.82967	28
3.83333	28
3.83700	28
3.84067	28
3.84433	28
3.84800	28
3.85167	28
3.85533	28
3.85900	28
3.86267	28
3.86633	28
3.87000	28
3.87367	28
3.87733	28
3.88100	28
3.88467	28
3.88833	28
3.89200	28
3.89567	28
3.89933	28
3.90300	29
3.90667	29
3.91033	29
3.91400	29
3.91767	29
3.92133	29
3.92500	29
3.92867	29
3.93233	29
3.93600	29
3.93967	29
3.94333	29
3.94700	30
3.95067	30
3.95433	30
3.95800	30
3.96167	30
3.96533	30
3.96900	30
3.97267	31
3.97633	31
3.98000	31
3.98367	30
3.98733	30
3.99100	30
3.99467	30
3.99833	30

[Chromatogram (Ch3)]
Interval(msec)	220
# of Points	1091
Start Time(min)	0.002
End Time(min)	3.998
R.Time (min)	Intensity
0.00167	1
0.00533	2
0.00900	2
0.01267	0
0.01633	-1
0.02000	-1
0.02367	-1
0.02733	-1
0.03100	-1
0.03467	-0
0.03833	1
0.04200	2
0.04567	1
0.04933	1
0.05300	2
0.05667	3
0.06033	4
0.06400	3
0.06767	4
0.07133	4
0.07500	2
0.07867	1
0.08233	-0
0.08600	-1
0.08967	-2
0.09333	-4
0.09700	-5
0.10067	-4
0.10433	-1
0.10800	1
0.11167	2
0.11533	2
0.11900	4
0.12267	4
0.12633	3
0.13000	1
0.13367	-3
0.13733	-3
0.14100	-3
0.14467	-3
0.14833	-0
0.15200	4
0.15567	6
0.15933	8
0.16300	9
0.16667	8
0.17033	7
0.17400	6
0.17767	3
0.18133	2
0.18500	3
0.18867	5
0.19233	5
0.19600	5
0.19967	4
0.20333	5
0.20700	7
0.21067	9
0.21433	9
0.21800	7
0.22167	5
0.22533	3
0.22900	3
0.23267	2
0.23633	2
0.24000	3
0.24367	4
0.24733	5
0.25100	3
0.25467	3
0.25833	4
0.26200	3
0.26567	1
0.26933	-1
0.27300	-2
0.27667	-0
0.28033	1
0.28400	3
0.28767	1
0.29133	-1
0.29500	-0
0.29867	0
0.30233	1
0.30600	2
0.30967	2
0.31333	1
0.31700	1
0.32067	0
0.32433	-1
0.32800	-3
0.33167	-4
0.33533	-4
0.33900	-2
0.34267	1
0.34633	2
0.35000	3
0.35367	4
0.35733	2
0.36100	0
0.36467	1
0.36833	2
0.37200	1
0.37567	1
0.37933	-1
0.38300	-1
0.38667	1
0.39033	4
0.39400	8
0.39767	8
0.40133	7
0.40500	6
0.40867	5
0.41233	3
0.41600	2
0.41967	2
0.42333	3
0.42700	3
0.43067	5
0.43433	6
0.43800	6
0.44167	7
0.44533	7
0.44900	6
0.45267	4
0.45633	2
0.46000	-1
0.46367	-3
0.46733	-4
0.47100	-2
0.47467	2
0.47833	5
0.48200	7
0.48567	7
0.48933	7
0.49300	5
0.49667	3
0.50033	2
0.50400	2
0.50767	2
0.51133	0
0.51500	-2
0.51867	-4
0.52233	-4
0.52600	-2
0.52967	-0
0.53333	1
0.53700	0
0.54067	3
0.54433	5
0.54800	5
0.55167	3
0.55533	2
0.55900	2
0.56267	3
0.56633	4
0.57000	3
0.57367	2
0.57733	2
0.58100	1
0.58467	1
0.58833	2
0.59200	4
0.59567	7
0.59933	8
0.60300	9
0.60667	8
0.61033	6
0.61400	4
0.61767	2
0.62133	2
0.62500	2
0.62867	1
0.63233	-1
0.63600	-2
0.63967	-1
0.64333	0
0.64700	0
0.65067	0
0.65433	1
0.65800	2
0.66167	4
0.66533	5
0.66900	7
0.67267	9
0.67633	7
0.68000	5
0.68367	5
0.68733	6
0.69100	7
0.69467	7
0.69833	7
0.70200	7
0.70567	8
0.70933	8
0.71300	8
0.71667	9
0.72033	10
0.72400	9
0.72767	7
0.73133	6
0.73500	4
0.73867	4
0.74233	5
0.74600	7
0.74967	9
0.75333	9
0.75700	9
0.76067	9
0.76433	10
0.76800	11
0.77167	10
0.77533	8
0.77900	7
0.78267	10
0.78633	11
0.79000	12
0.79367	13
0.79733	13
0.80100	12
0.80467	10
0.80833	7
0.81200	6
0.81567	7
0.81933	9
0.82300	10
0.82667	9
0.83033	10
0.83400	10
0.83767	9
0.84133	9
0.84500	8
0.84867	7
0.85233	6
0.85600	6
0.85967	7
0.86333	7
0.86700	5
0.87067	2
0.87433	2
0.87800	3
0.88167	6
0.88533	6
0.88900	7
0.89267	7
0.89633	8
0.90000	10
0.90367	11
0.90733	10
0.91100	11
0.91467	13
0.91833	13
0.92200	13
0.92567	13
0.92933	14
0.93300	13
0.93667	13
0.94033	13
0.94400	13
0.94767	14
0.95133	15
0.95500	13
0.95867	12
0.96233	12
0.96600	11
0.96967	11
0.97333	10
0.97700	10
0.98067	12
0.98433	14
0.98800	14
0.99167	14
0.99533	13
0.99900	11
1.00267	12
1.00633	12
1.01000	13
1.01367	11
1.01733	12
1.02100	12
1.02467	13
1.02833	15
1.03200	15
1.03567	16
1.03933	17
1.04300	18
1.04667	17
1.05033	17
1.05400	17
1.05767	16
1.06133	15
1.06500	15
1.06867	16
1.07233	16
1.07600	16
1.07967	16
1.08333	17
1.08700	16
1.09067	16
1.09433	16
1.09800	16
1.10167	14
1.10533	13
1.10900	12
1.11267	14
1.11633	15
1.12000	13
1.12367	11
1.12733	12
1.13100	14
1.13467	15
1.13833	15
1.14200	15
1.14567	15
1.14933	16
1.15300	18
1.15667	19
1.16033	20
1.16400	20
1.16767	21
1.17133	21
1.17500	18
1.17867	16
1.18233	17
1.18600	18
1.18967	20
1.19333	22
1.19700	22
1.20067	22
1.20433	22
1.20800	21
1.21167	20
1.21533	22
1.21900	20
1.22267	18
1.22633	18
1.23000	19
1.23367	19
1.23733	20
1.24100	18
1.24467	16
1.24833	16
1.25200	16
1.25567	15
1.25933	14
1.26300	16
1.26667	18
1.27033	18
1.27400	20
1.27767	24
1.28133	27
1.28500	26
1.28867	25
1.29233	25
1.29600	23
1.29967	20
1.30333	18
1.30700	18
1.31067	20
1.31433	21
1.31800	23
1.32167	26
1.32533	28
1.32900	28
1.33267	27
1.33633	29
1.34000	27
1.34367	24
1.34733	22
1.35100	22
1.35467	23
1.35833	22
1.36200	21
1.36567	22
1.36933	22
1.37300	21
1.37667	21
1.38033	21
1.38400	21
1.38767	21
1.39133	21
1.39500	22
1.39867	20
1.40233	19
1.40600	20
1.40967	22
1.41333	22
1.41700	21
1.42067	22
1.42433	23
1.42800	24
1.43167	25
1.43533	24
1.43900	21
1.44267	20
1.44633	19
1.45000	20
1.45367	21
1.45733	23
1.46100	24
1.46467	23
1.46833	23
1.47200	22
1.47567	21
1.47933	20
1.48300	22
1.48667	22
1.49033	20
1.49400	21
1.49767	23
1.50133	25
1.50500	26
1.50867	28
1.51233	29
1.51600	30
1.51967	29
1.52333	28
1.52700	28
1.53067	28
1.53433	29
1.53800	29
1.54167	29
1.54533	28
1.54900	28
1.55267	28
1.55633	26
1.56000	28
1.56367	29
1.56733	31
1.57100	31
1.57467	31
1.57833	29
1.58200	27
1.58567	26
1.58933	28
1.59300	30
1.59667	30
1.60033	30
1.60400	32
1.60767	30
1.61133	29
1.61500	30
1.61867	32
1.62233	32
1.62600	33
1.62967	32
1.63333	31
1.63700	31
1.64067	32
1.64433	33
1.64800	33
1.65167	33
1.65533	35
1.65900	37
1.66267	39
1.66633	39
1.67000	40
1.67367	40
1.67733	39
1.68100	39
1.68467	41
1.68833	41
1.69200	42
1.69567	42
1.69933	42
1.70300	42
1.70667	42
1.71033	42
1.71400	45
1.71767	48
1.72133	49
1.72500	49
1.72867	51
1.73233	50
1.73600	50
1.73967	50
1.74333	50
1.74700	50
1.75067	50
1.75433	49
1.75800	48
1.76167	47
1.76533	47
1.76900	47
1.77267	46
1.77633	46
1.78000	46
1.78367	47
1.78733	48
1.79100	50
1.79467	48
1.79833	47
1.80200	48
1.80567	48
1.80933	50
1.81300	52
1.81667	55
1.82033	56
1.82400	57
1.82767	57
1.83133	56
1.83500	58
1.83867	59
1.84233	62
1.84600	62
1.84967	59
1.85333	57
1.85700	58
1.86067	60
1.86433	63
1.86800	66
1.87167	68
1.87533	70
1.87900	70
1.88267	69
1.88633	68
1.89000	67
1.89367	67
1.89733	67
1.90100	68
1.90467	69
1.90833	71
1.91200	73
1.91567	75
1.91933	79
1.92300	80
1.92667	79
1.93033	77
1.93400	76
1.93767	76
1.94133	77
1.94500	80
1.94867	84
1.95233	87
1.95600	88
1.95967	89
1.96333	90
1.96700	87
1.97067	86
1.97433	84
1.97800	86
1.98167	89
1.98533	92
1.98900	93
1.99267	93
1.99633	94
2.00000	98
2.00367	101
2.00733	104
2.01100	106
2.01467	105
2.01833	107
2.02200	110
2.02567	113
2.02933	113
2.03300	112
2.03667	112
2.04033	114
2.04400	114
2.04767	113
2.05133	112
2.05500	115
2.05867	119
2.06233	122
2.06600	124
2.06967	123
2.07333	122
2.07700	122
2.08067	124
2.08433	128
2.08800	131
2.09167	133
2.09533	133
2.09900	134
2.10267	134
2.10633	137
2.11000	141
2.11367	143
2.11733	142
2.12100	143
2.12467	144
2.12833	146
2.13200	148
2.13567	149
2.13933	148
2.14300	149
2.14667	150
2.15033	152
2.15400	154
2.15767	155
2.16133	156
2.16500	157
2.16867	160
2.17233	163
2.17600	165
2.17967	167
2.18333	168
2.18700	170
2.19067	172
2.19433	173
2.19800	173
2.20167	174
2.20533	175
2.20900	175
2.21267	176
2.21633	179
2.22000	180
2.22367	183
2.22733	187
2.23100	191
2.23467	193
2.23833	195
2.24200	195
2.24567	195
2.24933	195
2.25300	196
2.25667	197
2.26033	199
2.26400	201
2.26767	201
2.27133	202
2.27500	203
2.27867	204
2.28233	205
2.28600	206
2.28967	208
2.29333	210
2.29700	212
2.30067	213
2.30433	215
2.30800	216
2.31167	218
2.31533	220
2.31900	221
2.32267	220
2.32633	221
2.33000	224
2.33367	227
2.33733	229
2.34100	230
2.34467	231
2.34833	234
2.35200	237
2.35567	238
2.35933	238
2.36300	238
2.36667	237
2.37033	237
2.37400	237
2.37767	239
2.38133	242
2.38500	242
2.38867	240
2.39233	237
2.39600	238
2.39967	238
2.40333	241
2.40700	244
2.41067	248
2.41433	252
2.41800	255
2.42167	256
2.42533	256
2.42900	256
2.43267	255
2.43633	254
2.44000	258
2.44367	318
2.44733	474
2.45100	643
2.45467	781
2.45833	857
2.46200	859
2.46567	814
2.46933	760
2.47300	717
2.47667	691
2.48033	668
2.48400	632
2.48767	580
2.49133	526
2.49500	479
2.49867	439
2.50233	410
2.50600	394
2.50967	391
2.51333	398
2.51700	413
2.52067	435
2.52433	454
2.52800	464
2.53167	459
2.53533	441
2.53900	413
2.54267	381
2.54633	347
2.55000	316
2.55367	286
2.55733	264
2.56100	246
2.56467	232
2.56833	223
2.57200	218
2.57567	219
2.57933	221
2.58300	222
2.58667	220
2.59033	218
2.59400	221
2.59767	225
2.60133	224
2.60500	222
2.60867	217
2.61233	212
2.61600	203
2.61967	193
2.62333	184
2.62700	173
2.63067	163
2.63433	153
2.63800	144
2.64167	134
2.64533	123
2.64900	111
2.65267	100
2.65633	89
2.66000	78
2.66367	68
2.66733	57
2.67100	48
2.67467	41
2.67833	34
2.68200	30
2.68567	27
2.68933	27
2.69300	26
2.69667	28
2.70033	30
2.70400	31
2.70767	35
2.71133	41
2.71500	45
2.71867	51
2.72233	55
2.72600	58
2.72967	61
2.73333	62
2.73700	63
2.74067	66
2.74433	70
2.74800	75
2.75167	79
2.75533	80
2.75900	81
2.76267	83
2.76633	86
2.77000	92
2.77367	96
2.77733	99
2.78100	103
2.78467	108
2.78833	111
2.79200	114
2.79567	118
2.79933	123
2.80300	129
2.80667	135
2.81033	143
2.81400	150
2.81767	158
2.82133	168
2.82500	187
2.82867	223
2.83233	287
2.83600	400
2.83967	589
2.84333	873
2.84700	1262
2.85067	1751
2.85433	2322
2.85800	2934
2.86167	3542
2.86533	4095
2.86900	4547
2.87267	4868
2.87633	5046
2.88000	5075
2.88367	4974
2.88733	4771
2.89100	4493
2.89467	4165
2.89833	3812
2.90200	3455
2.90567	3109
2.90933	2778
2.91300	2470
2.91667	2189
2.92033	1937
2.92400	1710
2.92767	1506
2.93133	1328
2.93500	1176
2.93867	1041
2.94233	922
2.94600	817
2.94967	725
2.95333	644
2.95700	575
2.96067	516
2.96433	463
2.96800	417
2.97167	375
2.97533	340
2.97900	310
2.98267	284
2.98633	262
2.99000	244
2.99367	228
2.99733	216
3.00100	203
3.00467	191
3.00833	181
3.01200	173
3.01567	165
3.01933	158
3.02300	150
3.02667	145
3.03033	140
3.03400	138
3.03767	135
3.04133	132
3.04500	131
3.04867	130
3.05233	129
3.05600	130
3.05967	127
3.06333	127
3.06700	127
3.07067	127
3.07433	126
3.07800	125
3.08167	126
3.08533	126
3.08900	126
3.09267	125
3.09633	124
3.10000	124
3.10367	125
3.10733	125
3.11100	123
3.11467	122
3.11833	121
3.12200	119
3.12567	120
3.12933	124
3.13300	127
3.13667	129
3.14033	129
3.14400	129
3.14767	127
3.15133	124
3.15500	123
3.15867	123
3.16233	122
3.16600	125
3.16967	129
3.17333	131
3.17700	133
3.18067	134
3.18433	132
3.18800	133
3.19167	136
3.19533	138
3.19900	139
3.20267	139
3.20633	140
3.21000	141
3.21367	142
3.21733	145
3.22100	147
3.22467	148
3.22833	150
3.23200	151
3.23567	153
3.23933	156
3.24300	159
3.24667	161
3.25033	162
3.25400	161
3.25767	160
3.26133	160
3.26500	162
3.26867	166
3.27233	169
3.27600	169
3.27967	169
3.28333	171
3.28700	176
3.29067	181
3.29433	185
3.29800	188
3.30167	191
3.30533	192
3.30900	194
3.31267	197
3.31633	197
3.32000	196
3.32367	197
3.32733	198
3.33100	199
3.33467	201
3.33833	204
3.34200	206
3.34567	205
3.34933	206
3.35300	208
3.35667	209
3.36033	211
3.36400	213
3.36767	215
3.37133	216
3.37500	219
3.37867	223
3.38233	226
3.38600	228
3.38967	232
3.39333	232
3.39700	232
3.40067	233
3.40433	236
3.40800	238
3.41167	238
3.41533	237
3.41900	238
3.42267	240
3.42633	242
3.43000	243
3.43367	242
3.43733	241
3.44100	241
3.44467	243
3.44833	243
3.45200	244
3.45567	246
3.45933	247
3.46300	248
3.46667	250
3.47033	252
3.47400	254
3.47767	253
3.48133	250
3.48500	248
3.48867	246
3.49233	245
3.49600	245
3.49967	245
3.50333	245
3.50700	246
3.51067	249
3.51433	250
3.51800	251
3.52167	251
3.52533	251
3.52900	250
3.53267	249
3.53633	248
3.54000	247
3.54367	246
3.54733	245
3.55100	245
3.55467	245
3.55833	243
3.56200	244
3.56567	246
3.56933	249
3.57300	249
3.57667	249
3.58033	251
3.58400	251
3.58767	250
3.59133	250
3.59500	251
3.59867	251
3.60233	252
3.60600	252
3.60967	251
3.61333	251
3.61700	251
3.62067	251
3.62433	250
3.62800	250
3.63167	250
3.63533	249
3.63900	249
3.64267	248
3.64633	249
3.65000	250
3.65367	246
3.65733	225
3.66100	205
3.66467	189
3.66833	176
3.67200	167
3.67567	166
3.67933	173
3.68300	185
3.68667	199
3.69033	217
3.69400	236
3.69767	254
3.70133	273
3.70500	292
3.70867	312
3.71233	335
3.71600	357
3.71967	377
3.72333	398
3.72700	417
3.73067	436
3.73433	453
3.73800	468
3.74167	483
3.74533	498
3.74900	511
3.75267	520
3.75633	528
3.76000	537
3.76367	543
3.76733	549
3.77100	554
3.77467	559
3.77833	562
3.78200	565
3.78567	568
3.78933	569
3.79300	570
3.79667	572
3.80033	574
3.80400	577
3.80767	579
3.81133	581
3.81500	582
3.81867	584
3.82233	584
3.82600	586
3.82967	587
3.83333	590
3.83700	591
3.84067	593
3.84433	597
3.84800	600
3.85167	600
3.85533	600
3.85900	599
3.86267	598
3.86633	598
3.87000	596
3.87367	594
3.87733	595
3.88100	594
3.88467	593
3.88833	593
3.89200	593
3.89567	593
3.89933	593
3.90300	594
3.90667	593
3.91033	591
3.91400	590
3.91767	590
3.92133	590
3.92500	589
3.92867	588
3.93233	589
3.93600	590
3.93967	589
3.94333	589
3.94700	587
3.95067	585
3.95433	584
3.95800	584
3.96167	584
3.96533	583
3.96900	584
3.97267	584
3.97633	583
3.98000	581
3.98367	579
3.98733	578
3.99100	577
3.99467	576
3.99833	573

[Status Trace (Column Oven Temperature)]
Interval(msec)	1000
# of Points	240
Start Time(min)	0.003
End Time(min)	3.986
Intensity Units	
Intensity Multiplier	1
R.Time (min)	Intensity
0.00310	35.02
0.01977	35.01
0.03643	35.00
0.05310	35.01
0.06977	35.04
0.08643	35.06
0.10310	35.06
0.11977	35.07
0.13643	35.05
0.15310	35.04
0.16977	35.03
0.18643	35.02
0.20310	35.02
0.21977	35.02
0.23643	35.01
0.25310	35.00
0.26977	35.00
0.28643	35.00
0.30310	35.00
0.31977	35.00
0.33643	35.00
0.35310	35.00
0.36977	35.00
0.38643	35.01
0.40310	35.01
0.41977	35.02
0.43643	35.03
0.45310	35.04
0.46977	35.05
0.48643	35.05
0.50310	35.04
0.51977	35.05
0.53643	35.05
0.55310	35.04
0.56977	35.02
0.58643	35.02
0.60310	35.03
0.61977	35.03
0.63643	35.03
0.65310	35.03
0.66977	35.03
0.68643	35.03
0.70310	35.02
0.71977	35.02
0.73643	35.00
0.75310	35.01
0.76977	35.02
0.78643	35.03
0.80310	35.03
0.81977	35.02
0.83643	35.02
0.85310	35.01
0.86977	35.00
0.88643	35.00
0.90310	34.98
0.91977	34.96
0.93643	34.96
0.95310	34.96
0.96977	34.97
0.98643	34.96
1.00310	34.97
1.01977	34.97
1.03643	34.99
1.05310	34.99
1.06977	35.01
1.08643	35.02
1.10310	35.02
1.11977	35.00
1.13643	34.99
1.15310	34.99
1.16977	34.98
1.18643	34.96
1.20310	34.96
1.21977	34.95
1.23643	34.96
1.25310	34.97
1.26977	34.96
1.28643	34.97
1.30310	34.98
1.31977	34.99
1.33643	35.01
1.35310	35.02
1.36977	35.02
1.38643	35.02
1.40310	35.02
1.41977	35.02
1.43643	35.02
1.45310	35.02
1.46977	35.03
1.48643	35.04
1.50310	35.03
1.51977	35.02
1.53643	35.01
1.55310	35.00
1.56977	34.99
1.58643	34.99
1.60310	35.03
1.61977	35.15
1.63643	35.33
1.65310	35.57
1.66977	35.88
1.68643	36.24
1.70310	36.58
1.71977	36.96
1.73643	37.28
1.75310	37.58
1.76977	37.87
1.78643	38.20
1.80310	38.56
1.81977	38.88
1.83643	39.24
1.85310	39.57
1.86977	39.90
1.88643	40.22
1.90310	40.56
1.91977	40.88
1.93643	41.22
1.95310	41.54
1.96977	41.87
1.98643	42.20
2.00310	42.50
2.01977	42.85
2.03643	43.16
2.05310	43.47
2.06977	43.81
2.08643	44.14
2.10310	44.48
2.11977	44.79
2.13643	45.12
2.15310	45.46
2.16977	45.78
2.18643	46.10
2.20310	46.43
2.21977	46.77
2.23643	47.11
2.25310	47.43
2.26977	47.76
2.28643	48.10
2.30310	48.41
2.31977	48.71
2.33643	49.08
2.35310	49.39
2.36977	49.59
2.38643	49.65
2.40310	49.65
2.41977	49.64
2.43643	49.66
2.45310	49.65
2.46977	49.68
2.48643	49.70
2.50310	49.70
2.51977	49.72
2.53643	49.72
2.55310	49.76
2.56977	49.77
2.58643	49.79
2.60310	49.83
2.61977	49.83
2.63643	49.83
2.65310	49.82
2.66977	49.84
2.68643	49.86
2.70310	49.86
2.71977	49.85
2.73643	49.85
2.75310	49.86
2.76977	49.86
2.78643	49.85
2.80310	49.86
2.81977	49.88
2.83643	49.90
2.85310	49.93
2.86977	49.94
2.88643	49.95
2.90310	49.96
2.91977	49.96
2.93643	49.98
2.95310	49.98
2.96977	49.99
2.98643	49.99
3.00310	49.99
3.01977	49.99
3.03643	49.99
3.05310	50.00
3.06977	50.00
3.08643	50.00
3.10310	49.99
3.11977	49.99
3.13643	49.99
3.15310	50.00
3.16977	50.00
3.18643	50.01
3.20310	50.02
3.21977	50.04
3.23643	50.06
3.25310	50.08
3.26977	50.09
3.28643	50.10
3.30310	50.09
3.31977	50.09
3.33643	50.08
3.35310	50.08
3.36977	50.08
3.38643	50.10
3.40310	50.11
3.41977	50.10
3.43643	50.09
3.45310	50.07
3.46977	50.06
3.48643	50.04
3.50310	50.04
3.51977	50.04
3.53643	50.05
3.55310	50.06
3.56977	50.08
3.58643	50.09
3.60310	50.08
3.61977	50.07
3.63643	50.07
3.65310	50.08
3.66977	50.08
3.68643	50.07
3.70310	50.07
3.71977	50.06
3.73643	50.07
3.75310	50.07
3.76977	50.06
3.78643	50.06
3.80310	50.07
3.81977	50.07
3.83643	50.08
3.85310	50.09
3.86977	50.09
3.88643	50.09
3.90310	50.09
3.91977	50.09
3.93643	50.09
3.95310	50.08
3.96977	50.07
3.98643	50.07

[Status Trace (Injection Unit Temperature)]
Interval(msec)	1000
# of Points	240
Start Time(min)	0.003
End Time(min)	3.986
Intensity Units	
Intensity Multiplier	1
R.Time (min)	Intensity
0.00310	99.98
0.01977	99.98
0.03643	99.98
0.05310	99.98
0.06977	99.98
0.08643	99.98
0.10310	99.98
0.11977	99.98
0.13643	99.98
0.15310	99.98
0.16977	99.99
0.18643	99.99
0.20310	99.99
0.21977	99.98
0.23643	99.98
0.25310	99.99
0.26977	99.99
0.28643	99.99
0.30310	99.99
0.31977	99.98
0.33643	99.99
0.35310	99.99
0.36977	99.99
0.38643	99.99
0.40310	99.99
0.41977	99.99
0.43643	99.99
0.45310	99.98
0.46977	99.99
0.48643	99.99
0.50310	99.99
0.51977	99.98
0.53643	99.99
0.55310	99.99
0.56977	99.98
0.58643	99.98
0.60310	99.98
0.61977	99.99
0.63643	99.99
0.65310	99.98
0.66977	99.99
0.68643	99.99
0.70310	99.98
0.71977	99.98
0.73643	99.99
0.75310	99.98
0.76977	99.98
0.78643	99.98
0.80310	99.98
0.81977	99.98
0.83643	99.98
0.85310	99.98
0.86977	99.98
0.88643	99.98
0.90310	99.98
0.91977	99.98
0.93643	99.98
0.95310	99.98
0.96977	99.98
0.98643	99.98
1.00310	99.98
1.01977	99.98
1.03643	99.98
1.05310	99.99
1.06977	99.96
1.08643	99.98
1.10310	99.98
1.11977	99.98
1.13643	99.98
1.15310	99.98
1.16977	99.98
1.18643	99.98
1.20310	99.98
1.21977	99.98
1.23643	99.98
1.25310	99.98
1.26977	99.98
1.28643	99.97
1.30310	99.98
1.31977	99.98
1.33643	99.98
1.35310	99.99
1.36977	99.98
1.38643	99.98
1.40310	99.98
1.41977	99.98
1.43643	99.98
1.45310	99.98
1.46977	99.98
1.48643	99.98
1.50310	99.98
1.51977	99.98
1.53643	99.98
1.55310	99.97
1.56977	99.98
1.58643	99.98
1.60310	99.98
1.61977	99.98
1.63643	99.98
1.65310	99.98
1.66977	99.98
1.68643	99.97
1.70310	99.98
1.71977	99.98
1.73643	99.98
1.75310	99.98
1.76977	99.98
1.78643	99.98
1.80310	99.98
1.81977	99.97
1.83643	99.98
1.85310	99.98
1.86977	99.98
1.88643	99.98
1.90310	99.98
1.91977	99.98
1.93643	99.97
1.95310	99.97
1.96977	99.97
1.98643	99.97
2.00310	99.96
2.01977	99.97
2.03643	99.97
2.05310	99.97
2.06977	99.97
2.08643	99.97
2.10310	99.97
2.11977	99.96
2.13643	99.97
2.15310	99.97
2.16977	99.96
2.18643	99.97
2.20310	99.97
2.21977	99.96
2.23643	99.96
2.25310	99.96
2.26977	99.96
2.28643	99.97
2.30310	99.96
2.31977	99.97
2.33643	99.96
2.35310	99.97
2.36977	99.97
2.38643	99.96
2.40310	99.97
2.41977	99.97
2.43643	99.97
2.45310	99.97
2.46977	99.97
2.48643	99.97
2.50310	99.97
2.51977	99.97
2.53643	99.97
2.55310	99.97
2.56977	99.97
2.58643	99.98
2.60310	99.98
2.61977	99.98
2.63643	99.98
2.65310	99.98
2.66977	99.98
2.68643	99.99
2.70310	99.98
2.71977	99.99
2.73643	99.99
2.75310	99.99
2.76977	99.99
2.78643	99.99
2.80310	100.00
2.81977	100.00
2.83643	100.00
2.85310	100.00
2.86977	100.00
2.88643	100.00
2.90310	100.00
2.91977	100.01
2.93643	100.01
2.95310	100.01
2.96977	100.01
2.98643	100.01
3.00310	100.01
3.01977	100.01
3.03643	100.00
3.05310	100.02
3.06977	100.02
3.08643	100.01
3.10310	100.02
3.11977	100.02
3.13643	100.02
3.15310	100.01
3.16977	100.02
3.18643	100.02
3.20310	100.02
3.21977	100.02
3.23643	100.02
3.25310	100.02
3.26977	100.02
3.28643	100.03
3.30310	100.02
3.31977	100.02
3.33643	100.02
3.35310	100.03
3.36977	100.03
3.38643	100.03
3.40310	100.03
3.41977	100.02
3.43643	100.03
3.45310	100.03
3.46977	100.03
3.48643	100.03
3.50310	100.03
3.51977	100.03
3.53643	100.03
3.55310	100.03
3.56977	100.03
3.58643	100.03
3.60310	100.03
3.61977	100.03
3.63643	100.03
3.65310	100.03
3.66977	100.03
3.68643	100.03
3.70310	100.03
3.71977	100.03
3.73643	100.03
3.75310	100.03
3.76977	100.03
3.78643	100.03
3.80310	100.03
3.81977	100.04
3.83643	100.03
3.85310	100.03
3.86977	100.04
3.88643	100.04
3.90310	100.04
3.91977	100.03
3.93643	100.04
3.95310	100.04
3.96977	100.04
3.98643	100.04

[Status Trace (Carrier Gas Pressure)]
Interval(msec)	1000
# of Points	240
Start Time(min)	0.003
End Time(min)	3.986
Intensity Units	
Intensity Multiplier	1
R.Time (min)	Intensity
0.00310	58.00
0.01977	56.23
0.03643	56.41
0.05310	58.57
0.06977	59.86
0.08643	58.26
0.10310	57.97
0.11977	58.00
0.13643	58.01
0.15310	58.01
0.16977	58.00
0.18643	58.00
0.20310	58.00
0.21977	58.00
0.23643	58.00
0.25310	58.00
0.26977	58.00
0.28643	58.00
0.30310	58.00
0.31977	58.00
0.33643	58.00
0.35310	58.00
0.36977	58.00
0.38643	58.00
0.40310	58.00
0.41977	58.00
0.43643	58.00
0.45310	58.00
0.46977	58.00
0.48643	58.00
0.50310	58.00
0.51977	58.00
0.53643	58.00
0.55310	58.00
0.56977	58.00
0.58643	58.00
0.60310	58.00
0.61977	58.00
0.63643	58.00
0.65310	58.00
0.66977	58.00
0.68643	58.00
0.70310	58.00
0.71977	58.00
0.73643	58.00
0.75310	58.00
0.76977	58.00
0.78643	58.00
0.80310	58.00
0.81977	58.00
0.83643	58.00
0.85310	58.00
0.86977	58.00
0.88643	58.00
0.90310	58.00
0.91977	58.00
0.93643	58.00
0.95310	58.00
0.96977	58.00
0.98643	58.00
1.00310	58.00
1.01977	58.00
1.03643	58.00
1.05310	58.00
1.06977	58.00
1.08643	58.00
1.10310	58.00
1.11977	58.00
1.13643	58.00
1.15310	58.00
1.16977	58.00
1.18643	58.00
1.20310	58.00
1.21977	58.00
1.23643	58.00
1.25310	58.00
1.26977	58.00
1.28643	58.00
1.30310	58.00
1.31977	58.00
1.33643	58.00
1.35310	58.00
1.36977	58.00
1.38643	58.00
1.40310	58.00
1.41977	58.00
1.43643	58.00
1.45310	58.00
1.46977	58.00
1.48643	58.00
1.50310	58.00
1.51977	58.00
1.53643	58.00
1.55310	58.00
1.56977	58.00
1.58643	58.00
1.60310	58.00
1.61977	58.00
1.63643	58.01
1.65310	58.00
1.66977	58.00
1.68643	58.00
1.70310	58.00
1.71977	58.00
1.73643	58.00
1.75310	58.00
1.76977	58.00
1.78643	58.00
1.80310	58.00
1.81977	58.00
1.83643	58.00
1.85310	58.00
1.86977	58.00
1.88643	58.00
1.90310	58.00
1.91977	58.00
1.93643	58.00
1.95310	58.00
1.96977	58.00
1.98643	58.00
2.00310	58.00
2.01977	58.00
2.03643	58.00
2.05310	58.00
2.06977	58.00
2.08643	58.00
2.10310	58.00
2.11977	58.00
2.13643	58.00
2.15310	58.00
2.16977	58.00
2.18643	58.00
2.20310	58.00
2.21977	58.00
2.23643	58.00
2.25310	58.00
2.26977	58.00
2.28643	58.00
2.30310	58.00
2.31977	58.00
2.33643	58.00
2.35310	58.00
2.36977	57.99
2.38643	57.99
2.40310	57.99
2.41977	58.00
2.43643	58.00
2.45310	58.00
2.46977	58.00
2.48643	58.00
2.50310	57.97
2.51977	58.02
2.53643	57.99
2.55310	58.00
2.56977	58.00
2.58643	58.00
2.60310	58.00
2.61977	58.00
2.63643	58.00
2.65310	58.00
2.66977	58.00
2.68643	58.00
2.70310	58.00
2.71977	58.00
2.73643	58.00
2.75310	58.00
2.76977	58.00
2.78643	58.00
2.80310	58.00
2.81977	58.00
2.83643	58.00
2.85310	58.00
2.86977	58.00
2.88643	58.00
2.90310	58.00
2.91977	58.00
2.93643	58.00
2.95310	58.00
2.96977	58.00
2.98643	58.00
3.00310	58.00
3.01977	58.00
3.03643	58.00
3.05310	58.00
3.06977	58.00
3.08643	58.00
3.10310	58.00
3.11977	58.00
3.13643	58.00
3.15310	58.00
3.16977	58.00
3.18643	58.00
3.20310	58.00
3.21977	58.00
3.23643	58.00
3.25310	58.00
3.26977	58.00
3.28643	58.00
3.30310	58.00
3.31977	58.00
3.33643	58.00
3.35310	58.00
3.36977	58.00
3.38643	58.00
3.40310	58.00
3.41977	58.00
3.43643	58.00
3.45310	58.00
3.46977	58.00
3.48643	58.00
3.50310	58.00
3.51977	58.00
3.53643	58.00
3.55310	58.00
3.56977	58.00
3.58643	58.00
3.60310	58.00
3.61977	58.00
3.63643	58.00
3.65310	58.00
3.66977	58.00
3.68643	58.00
3.70310	58.00
3.71977	58.00
3.73643	58.00
3.75310	58.00
3.76977	58.00
3.78643	58.00
3.80310	58.00
3.81977	58.00
3.83643	58.00
3.85310	58.00
3.86977	58.00
3.88643	58.00
3.90310	58.00
3.91977	58.00
3.93643	58.00
3.95310	58.00
3.96977	58.00
3.98643	58.00

[Status Trace (Carrier Gas Flow)]
Interval(msec)	1000
# of Points	240
Start Time(min)	0.003
End Time(min)	3.986
Intensity Units	
Intensity Multiplier	1
R.Time (min)	Intensity
0.00310	34.52
0.01977	34.59
0.03643	34.54
0.05310	34.55
0.06977	34.49
0.08643	34.52
0.10310	34.52
0.11977	34.52
0.13643	34.52
0.15310	34.52
0.16977	34.52
0.18643	34.52
0.20310	34.52
0.21977	34.52
0.23643	34.52
0.25310	34.52
0.26977	34.52
0.28643	34.52
0.30310	34.52
0.31977	34.52
0.33643	34.52
0.35310	34.52
0.36977	34.52
0.38643	34.52
0.40310	34.52
0.41977	34.52
0.43643	34.52
0.45310	34.52
0.46977	34.52
0.48643	34.52
0.50310	34.52
0.51977	34.52
0.53643	34.52
0.55310	34.52
0.56977	34.52
0.58643	34.52
0.60310	34.52
0.61977	34.52
0.63643	34.53
0.65310	34.51
0.66977	34.52
0.68643	34.51
0.70310	34.52
0.71977	34.52
0.73643	34.52
0.75310	34.52
0.76977	34.52
0.78643	34.53
0.80310	34.52
0.81977	34.51
0.83643	34.52
0.85310	34.52
0.86977	34.52
0.88643	34.52
0.90310	34.52
0.91977	34.52
0.93643	34.52
0.95310	34.52
0.96977	34.52
0.98643	34.52
1.00310	34.52
1.01977	34.52
1.03643	34.52
1.05310	34.52
1.06977	34.52
1.08643	34.51
1.10310	34.52
1.11977	34.52
1.13643	34.51
1.15310	34.52
1.16977	34.52
1.18643	34.52
1.20310	34.52
1.21977	34.52
1.23643	34.52
1.25310	34.52
1.26977	34.51
1.28643	34.52
1.30310	34.53
1.31977	34.52
1.33643	34.51
1.35310	34.51
1.36977	34.52
1.38643	34.52
1.40310	34.51
1.41977	34.52
1.43643	34.51
1.45310	34.52
1.46977	34.52
1.48643	34.52
1.50310	34.52
1.51977	34.52
1.53643	34.51
1.55310	34.51
1.56977	34.52
1.58643	34.52
1.60310	34.51
1.61977	34.52
1.63643	34.52
1.65310	34.51
1.66977	34.52
1.68643	34.52
1.70310	34.52
1.71977	34.53
1.73643	34.52
1.75310	34.53
1.76977	34.53
1.78643	34.52
1.80310	34.52
1.81977	34.52
1.83643	34.51
1.85310	34.52
1.86977	34.52
1.88643	34.52
1.90310	34.52
1.91977	34.52
1.93643	34.51
1.95310	34.52
1.96977	34.51
1.98643	34.52
2.00310	34.52
2.01977	34.52
2.03643	34.53
2.05310	34.52
2.06977	34.52
2.08643	34.52
2.10310	34.52
2.11977	34.51
2.13643	34.51
2.15310	34.52
2.16977	34.52
2.18643	34.52
2.20310	34.51
2.21977	34.52
2.23643	34.52
2.25310	34.52
2.26977	34.52
2.28643	34.52
2.30310	34.52
2.31977	34.52
2.33643	34.52
2.35310	34.52
2.36977	34.52
2.38643	34.56
2.40310	34.51
2.41977	34.52
2.43643	34.52
2.45310	34.52
2.46977	34.52
2.48643	34.52
2.50310	34.70
2.51977	34.52
2.53643	34.52
2.55310	34.51
2.56977	34.52
2.58643	34.51
2.60310	34.52
2.61977	34.52
2.63643	34.52
2.65310	34.52
2.66977	34.52
2.68643	34.52
2.70310	34.52
2.71977	34.52
2.73643	34.52
2.75310	34.52
2.76977	34.51
2.78643	34.52
2.80310	34.51
2.81977	34.52
2.83643	34.52
2.85310	34.52
2.86977	34.52
2.88643	34.52
2.90310	34.52
2.91977	34.51
2.93643	34.52
2.95310	34.52
2.96977	34.52
2.98643	34.52
3.00310	34.52
3.01977	34.52
3.03643	34.52
3.05310	34.52
3.06977	34.52
3.08643	34.52
3.10310	34.52
3.11977	34.52
3.13643	34.52
3.15310	34.52
3.16977	34.51
3.18643	34.52
3.20310	34.52
3.21977	34.52
3.23643	34.52
3.25310	34.51
3.26977	34.52
3.28643	34.52
3.30310	34.52
3.31977	34.52
3.33643	34.52
3.35310	34.52
3.36977	34.52
3.38643	34.52
3.40310	34.52
3.41977	34.52
3.43643	34.52
3.45310	34.51
3.46977	34.52
3.48643	34.52
3.50310	34.52
3.51977	34.52
3.53643	34.52
3.55310	34.52
3.56977	34.52
3.58643	34.52
3.60310	34.52
3.61977	34.52
3.63643	34.52
3.65310	34.52
3.66977	34.52
3.68643	34.52
3.70310	34.52
3.71977	34.52
3.73643	34.51
3.75310	34.53
3.76977	34.52
3.78643	34.53
3.80310	34.51
3.81977	34.52
3.83643	34.53
3.85310	34.51
3.86977	34.52
3.88643	34.52
3.90310	34.52
3.91977	34.52
3.93643	34.52
3.95310	34.52
3.96977	34.52
3.98643	34.51

[Status Trace (Column Flow)]
Interval(msec)	1000
# of Points	240
Start Time(min)	0.003
End Time(min)	3.986
Intensity Units	
Intensity Multiplier	1
R.Time (min)	Intensity
0.00310	5.54
0.01977	5.33
0.03643	5.35
0.05310	5.60
0.06977	5.75
0.08643	5.57
0.10310	5.53
0.11977	5.54
0.13643	5.54
0.15310	5.54
0.16977	5.54
0.18643	5.54
0.20310	5.54
0.21977	5.54
0.23643	5.54
0.25310	5.54
0.26977	5.54
0.28643	5.54
0.30310	5.54
0.31977	5.54
0.33643	5.54
0.35310	5.54
0.36977	5.54
0.38643	5.54
0.40310	5.54
0.41977	5.54
0.43643	5.54
0.45310	5.54
0.46977	5.54
0.48643	5.54
0.50310	5.54
0.51977	5.54
0.53643	5.54
0.55310	5.54
0.56977	5.54
0.58643	5.54
0.60310	5.54
0.61977	5.54
0.63643	5.54
0.65310	5.54
0.66977	5.54
0.68643	5.54
0.70310	5.54
0.71977	5.54
0.73643	5.54
0.75310	5.54
0.76977	5.54
0.78643	5.54
0.80310	5.54
0.81977	5.54
0.83643	5.54
0.85310	5.54
0.86977	5.54
0.88643	5.54
0.90310	5.54
0.91977	5.54
0.93643	5.54
0.95310	5.54
0.96977	5.54
0.98643	5.54
1.00310	5.54
1.01977	5.54
1.03643	5.54
1.05310	5.54
1.06977	5.54
1.08643	5.54
1.10310	5.54
1.11977	5.54
1.13643	5.54
1.15310	5.54
1.16977	5.54
1.18643	5.54
1.20310	5.54
1.21977	5.54
1.23643	5.54
1.25310	5.54
1.26977	5.54
1.28643	5.54
1.30310	5.54
1.31977	5.54
1.33643	5.54
1.35310	5.54
1.36977	5.54
1.38643	5.54
1.40310	5.54
1.41977	5.54
1.43643	5.54
1.45310	5.54
1.46977	5.54
1.48643	5.54
1.50310	5.54
1.51977	5.54
1.53643	5.54
1.55310	5.54
1.56977	5.54
1.58643	5.54
1.60310	5.54
1.61977	5.53
1.63643	5.53
1.65310	5.52
1.66977	5.51
1.68643	5.50
1.70310	5.49
1.71977	5.48
1.73643	5.47
1.75310	5.46
1.76977	5.45
1.78643	5.44
1.80310	5.43
1.81977	5.42
1.83643	5.41
1.85310	5.40
1.86977	5.39
1.88643	5.38
1.90310	5.37
1.91977	5.36
1.93643	5.35
1.95310	5.34
1.96977	5.33
1.98643	5.32
2.00310	5.31
2.01977	5.30
2.03643	5.29
2.05310	5.28
2.06977	5.27
2.08643	5.26
2.10310	5.25
2.11977	5.24
2.13643	5.23
2.15310	5.22
2.16977	5.21
2.18643	5.20
2.20310	5.19
2.21977	5.18
2.23643	5.17
2.25310	5.16
2.26977	5.16
2.28643	5.15
2.30310	5.14
2.31977	5.13
2.33643	5.12
2.35310	5.11
2.36977	5.10
2.38643	5.10
2.40310	5.10
2.41977	5.10
2.43643	5.10
2.45310	5.10
2.46977	5.10
2.48643	5.10
2.50310	5.10
2.51977	5.10
2.53643	5.10
2.55310	5.10
2.56977	5.10
2.58643	5.10
2.60310	5.10
2.61977	5.10
2.63643	5.10
2.65310	5.10
2.66977	5.10
2.68643	5.10
2.70310	5.10
2.71977	5.10
2.73643	5.10
2.75310	5.10
2.76977	5.10
2.78643	5.10
2.80310	5.10
2.81977	5.10
2.83643	5.10
2.85310	5.09
2.86977	5.09
2.88643	5.09
2.90310	5.09
2.91977	5.09
2.93643	5.09
2.95310	5.09
2.96977	5.09
2.98643	5.09
3.00310	5.09
3.01977	5.09
3.03643	5.09
3.05310	5.09
3.06977	5.09
3.08643	5.09
3.10310	5.09
3.11977	5.09
3.13643	5.09
3.15310	5.09
3.16977	5.09
3.18643	5.09
3.20310	5.09
3.21977	5.09
3.23643	5.09
3.25310	5.09
3.26977	5.09
3.28643	5.09
3.30310	5.09
3.31977	5.09
3.33643	5.09
3.35310	5.09
3.36977	5.09
3.38643	5.09
3.40310	5.09
3.41977	5.09
3.43643	5.09
3.45310	5.09
3.46977	5.09
3.48643	5.09
3.50310	5.09
3.51977	5.09
3.53643	5.09
3.55310	5.09
3.56977	5.09
3.58643	5.09
3.60310	5.09
3.61977	5.09
3.63643	5.09
3.65310	5.09
3.66977	5.09
3.68643	5.09
3.70310	5.09
3.71977	5.09
3.73643	5.09
3.75310	5.09
3.76977	5.09
3.78643	5.09
3.80310	5.09
3.81977	5.09
3.83643	5.09
3.85310	5.09
3.86977	5.09
3.88643	5.09
3.90310	5.09
3.91977	5.09
3.93643	5.09
3.95310	5.09
3.96977	5.09
3.98643	5.09

[Status Trace (Linear Velocity)]
Interval(msec)	1000
# of Points	240
Start Time(min)	0.003
End Time(min)	3.986
Intensity Units	
Intensity Multiplier	1
R.Time (min)	Intensity
0.00310	39.02
0.01977	37.86
0.03643	37.98
0.05310	39.39
0.06977	40.23
0.08643	39.18
0.10310	39.00
0.11977	39.02
0.13643	39.02
0.15310	39.02
0.16977	39.02
0.18643	39.02
0.20310	39.02
0.21977	39.02
0.23643	39.02
0.25310	39.02
0.26977	39.02
0.28643	39.02
0.30310	39.02
0.31977	39.02
0.33643	39.02
0.35310	39.02
0.36977	39.02
0.38643	39.02
0.40310	39.02
0.41977	39.02
0.43643	39.02
0.45310	39.02
0.46977	39.02
0.48643	39.02
0.50310	39.02
0.51977	39.02
0.53643	39.02
0.55310	39.02
0.56977	39.02
0.58643	39.02
0.60310	39.02
0.61977	39.02
0.63643	39.02
0.65310	39.02
0.66977	39.02
0.68643	39.02
0.70310	39.02
0.71977	39.02
0.73643	39.02
0.75310	39.02
0.76977	39.02
0.78643	39.02
0.80310	39.02
0.81977	39.02
0.83643	39.02
0.85310	39.02
0.86977	39.02
0.88643	39.02
0.90310	39.02
0.91977	39.02
0.93643	39.02
0.95310	39.02
0.96977	39.02
0.98643	39.02
1.00310	39.02
1.01977	39.02
1.03643	39.02
1.05310	39.02
1.06977	39.02
1.08643	39.02
1.10310	39.02
1.11977	39.02
1.13643	39.02
1.15310	39.02
1.16977	39.02
1.18643	39.02
1.20310	39.02
1.21977	39.02
1.23643	39.02
1.25310	39.02
1.26977	39.02
1.28643	39.02
1.30310	39.02
1.31977	39.02
1.33643	39.02
1.35310	39.02
1.36977	39.02
1.38643	39.02
1.40310	39.02
1.41977	39.02
1.43643	39.02
1.45310	39.02
1.46977	39.02
1.48643	39.02
1.50310	39.02
1.51977	39.02
1.53643	39.02
1.55310	39.02
1.56977	39.02
1.58643	39.02
1.60310	39.02
1.61977	39.01
1.63643	38.99
1.65310	38.97
1.66977	38.94
1.68643	38.90
1.70310	38.87
1.71977	38.83
1.73643	38.80
1.75310	38.77
1.76977	38.75
1.78643	38.72
1.80310	38.68
1.81977	38.65
1.83643	38.62
1.85310	38.59
1.86977	38.55
1.88643	38.52
1.90310	38.49
1.91977	38.46
1.93643	38.43
1.95310	38.40
1.96977	38.37
1.98643	38.34
2.00310	38.31
2.01977	38.28
2.03643	38.25
2.05310	38.22
2.06977	38.19
2.08643	38.16
2.10310	38.13
2.11977	38.10
2.13643	38.07
2.15310	38.04
2.16977	38.01
2.18643	37.98
2.20310	37.95
2.21977	37.92
2.23643	37.89
2.25310	37.86
2.26977	37.84
2.28643	37.81
2.30310	37.78
2.31977	37.75
2.33643	37.72
2.35310	37.69
2.36977	37.67
2.38643	37.66
2.40310	37.66
2.41977	37.67
2.43643	37.67
2.45310	37.67
2.46977	37.66
2.48643	37.66
2.50310	37.64
2.51977	37.67
2.53643	37.66
2.55310	37.66
2.56977	37.66
2.58643	37.65
2.60310	37.65
2.61977	37.65
2.63643	37.65
2.65310	37.65
2.66977	37.65
2.68643	37.65
2.70310	37.65
2.71977	37.65
2.73643	37.65
2.75310	37.65
2.76977	37.65
2.78643	37.65
2.80310	37.65
2.81977	37.65
2.83643	37.64
2.85310	37.64
2.86977	37.64
2.88643	37.64
2.90310	37.64
2.91977	37.64
2.93643	37.64
2.95310	37.64
2.96977	37.64
2.98643	37.64
3.00310	37.64
3.01977	37.64
3.03643	37.64
3.05310	37.64
3.06977	37.64
3.08643	37.64
3.10310	37.64
3.11977	37.64
3.13643	37.64
3.15310	37.64
3.16977	37.64
3.18643	37.64
3.20310	37.63
3.21977	37.63
3.23643	37.63
3.25310	37.63
3.26977	37.63
3.28643	37.63
3.30310	37.63
3.31977	37.63
3.33643	37.63
3.35310	37.63
3.36977	37.63
3.38643	37.63
3.40310	37.63
3.41977	37.63
3.43643	37.63
3.45310	37.63
3.46977	37.63
3.48643	37.63
3.50310	37.63
3.51977	37.63
3.53643	37.63
3.55310	37.63
3.56977	37.63
3.58643	37.63
3.60310	37.63
3.61977	37.63
3.63643	37.63
3.65310	37.63
3.66977	37.63
3.68643	37.63
3.70310	37.63
3.71977	37.63
3.73643	37.63
3.75310	37.63
3.76977	37.63
3.78643	37.63
3.80310	37.63
3.81977	37.63
3.83643	37.63
3.85310	37.63
3.86977	37.63
3.88643	37.63
3.90310	37.63
3.91977	37.63
3.93643	37.63
3.95310	37.63
3.96977	37.63
3.98643	37.63

