[Header]
Application Name	LabSolutions
Version	5.110
Data File Name	C:\Users\User\Desktop\GC Analyses\Jack\Nachusa Grasslands Sampling\T3 Timepoint July 12th\T3_07122022_029.gcd
Output Date	3/14/2023
Output Time	3:43:31 PM

[File Information]
Type	Data File
Generated	3/13/2023 5:38:41 PM
Generated by	System Administrator
Modified	3/13/2023 5:45:19 PM
Modified by	System Administrator

[Sample Information]
Operator Name	System Administrator
Acquired	3/13/2023 5:41:17 PM
Sample Type	0:Unknown
Level	0
Sample Name	029
Sample ID	029
ISTD Amount1	1
ISTD Amount2	1
ISTD Amount3	1
ISTD Amount4	1
ISTD Amount5	1
ISTD Amount6	1
ISTD Amount7	1
ISTD Amount8	1
ISTD Amount9	1
ISTD Amount10	1
ISTD Amount11	1
ISTD Amount12	1
ISTD Amount13	1
ISTD Amount14	1
ISTD Amount15	1
ISTD Amount16	1
ISTD Amount17	1
ISTD Amount18	1
ISTD Amount19	1
ISTD Amount20	1
ISTD Amount21	1
ISTD Amount22	1
ISTD Amount23	1
ISTD Amount24	1
ISTD Amount25	1
ISTD Amount26	1
ISTD Amount27	1
ISTD Amount28	1
ISTD Amount29	1
ISTD Amount30	1
ISTD Amount31	1
ISTD Amount32	1
Sample Amount	1
Dilution Factor	1
Vial#	28
Injection Volume	1
Injection Count	1
Bar Code	

[Original Files]
Data File	C:\Users\User\Desktop\GC Analyses\Jack\Nachusa Grasslands Sampling\T3 Timepoint July 12th\T3_07122022_029.gcd
Method File	C:\LabSolutions\Data\GHG_4min_2022\ghg3_togas_w_acet_4 min_new_int.gcm
Batch File	C:\LabSolutions\Data\AutoSamplerTesting\T3_07122022.gcb
Report Format File	c:\LabSolutions\System\DEFAULT.lsr

[File Description]


[Configuration]
Instrument Name	C0B7VH3-Instrument1
Instrument #	1
Line #	1
# of Detectors	3
Detector ID	DET#1	DET#2	DET#3
Detector Name	FID	PTCD	ECD
# of Channels	1	1	1

[Peak Table(Ch1)]
# of Peaks	3
Peak#	R.Time	I.Time	F.Time	Area	Height	A/H	Conc.	Mark	ID#	Name	k'	Plate #	Plate Ht.	Tailing	Resolution	Sep.Factor	Area Ratio	Height Ratio	Conc. %	Norm Conc.
1	1.457	1.443	1.479	732	667	1.097	5.169	   	1	CO	0.000	31078	4.827	1.183	0.000	0.000	0	0	0.555	0.555
2	1.571	1.531	1.652	20659	10366	1.993	399.457	   	2	CH4	0.078	11467	13.081	1.158	2.478	0.000	0	0	42.926	42.926
3	2.000	1.945	2.385	2095609	1007253	2.081	525.941	   	3	CO2	0.372	17524	8.560	1.181	7.203	4.774	0	0	56.518	56.518

[Peak Table(Ch2)]
# of Peaks	0

[Peak Table(Ch3)]
# of Peaks	5
Peak#	R.Time	I.Time	F.Time	Area	Height	A/H	Conc.	Mark	ID#	Name	k'	Plate #	Plate Ht.	Tailing	Resolution	Sep.Factor	Area Ratio	Height Ratio	Conc. %	Norm Conc.
1	2.462	2.257	2.510	2130	579	3.677	0.000	   			0.000	10339	14.508	0.000	0.000	0.000	0	0	0.000	0.000
2	2.528	2.510	2.579	941	320	2.941	0.000	 V 			0.027	5534	27.106	0.000	0.567	0.000	0	0	0.000	0.000
3	2.605	2.579	2.678	514	143	3.605	0.000	 V 			0.058	1857	80.773	0.000	0.408	2.167	0	0	0.000	0.000
4	2.880	2.708	3.096	57589	14910	3.862	1.471	   	1	N2O	0.170	12706	11.806	1.555	1.599	2.923	0	0	100.000	100.000
5	3.401	3.269	3.995	15120	640	23.620	0.000	   	2	SF6	0.381	400	374.559	2.685	1.332	2.246	0	0	0.000	0.000

[Compound Results(Ch1)]
# of IDs	6
ID#	Name	R.Time	Area	Height	Conc.	Curve	3rd	2nd	1st	Constant	Area Ratio	Height Ratio	Conc. %	Norm Conc.
1	CO	1.457	732	667	5.169	Linear	0.000000e+00	0.000000e+00	1.416423e+002	0.000000e+00	0	0	0.555	0.555
2	CH4	1.571	20659	10366	399.457	Linear	0.000000e+00	0.000000e+00	5.171738e+001	0.000000e+00	0	0	42.926	42.926
3	CO2	2.000	2095609	1007253	525.941	Linear	0.000000e+00	0.000000e+00	3.984494e+003	0.000000e+00	0	0	56.518	56.518
4	Ethylene	0.000	0	0	0.000	Linear	0.000000e+00	0.000000e+00	0.000000e+00	0.000000e+00	0	0	0.000	0.000
5	Acetylene	0.000	0	0	0.000	Linear	0.000000e+00	0.000000e+00	0.000000e+00	0.000000e+00	0	0	0.000	0.000
6	Ethane	0.000	0	0	0.000	Linear	0.000000e+00	0.000000e+00	0.000000e+00	0.000000e+00	0	0	0.000	0.000

[Compound Results(Ch2)]
# of IDs	5
ID#	Name	R.Time	Area	Height	Conc.	Curve	3rd	2nd	1st	Constant	Area Ratio	Height Ratio	Conc. %	Norm Conc.
1	Hydrogen	0.000	0	0	0.000	Linear	0.000000e+00	0.000000e+00	0.000000e+00	0.000000e+00	0	0	0.000	0.000
2	Oxygen	0.000	0	0	0.000	Linear	0.000000e+00	0.000000e+00	0.000000e+00	0.000000e+00	0	0	0.000	0.000
3	Nitrogen	0.000	0	0	0.000	Linear	0.000000e+00	0.000000e+00	0.000000e+00	0.000000e+00	0	0	0.000	0.000
4	Methane	0.000	0	0	0.000	Linear	0.000000e+00	0.000000e+00	0.000000e+00	0.000000e+00	0	0	0.000	0.000
5	Carbon Monoxide	0.000	0	0	0.000	Linear	0.000000e+00	0.000000e+00	0.000000e+00	0.000000e+00	0	0	0.000	0.000

[Compound Results(Ch3)]
# of IDs	2
ID#	Name	R.Time	Area	Height	Conc.	Curve	3rd	2nd	1st	Constant	Area Ratio	Height Ratio	Conc. %	Norm Conc.
1	N2O	2.880	57589	14910	1.471	Linear	0.000000e+00	0.000000e+00	3.915173e+004	0.000000e+00	0	0	100.000	100.000
2	SF6	3.401	15120	640	0.000	Linear	0.000000e+00	0.000000e+00	0.000000e+00	0.000000e+00	0	0	0.000	0.000

[Group Results(Ch1)]
# of Groups	0

[Group Results(Ch2)]
# of Groups	0

[Group Results(Ch3)]
# of Groups	0

[Chromatogram (Ch1)]
Interval(msec)	220
# of Points	1091
Start Time(min)	0.002
End Time(min)	3.998
R.Time (min)	Intensity
0.00167	-1
0.00533	-3
0.00900	-5
0.01267	-6
0.01633	-5
0.02000	-1
0.02367	7
0.02733	12
0.03100	12
0.03467	7
0.03833	2
0.04200	2
0.04567	3
0.04933	1
0.05300	-2
0.05667	-7
0.06033	-11
0.06400	-17
0.06767	-22
0.07133	-27
0.07500	-32
0.07867	-38
0.08233	-42
0.08600	-39
0.08967	-31
0.09333	-20
0.09700	-10
0.10067	-6
0.10433	-5
0.10800	-6
0.11167	-10
0.11533	-15
0.11900	-16
0.12267	-10
0.12633	-2
0.13000	4
0.13367	8
0.13733	9
0.14100	8
0.14467	8
0.14833	7
0.15200	7
0.15567	2
0.15933	-7
0.16300	-16
0.16667	-21
0.17033	-23
0.17400	-22
0.17767	-16
0.18133	-10
0.18500	-4
0.18867	1
0.19233	6
0.19600	7
0.19967	3
0.20333	0
0.20700	3
0.21067	7
0.21433	12
0.21800	15
0.22167	16
0.22533	16
0.22900	18
0.23267	21
0.23633	21
0.24000	18
0.24367	12
0.24733	6
0.25100	-1
0.25467	-1
0.25833	-3
0.26200	-6
0.26567	-7
0.26933	-4
0.27300	2
0.27667	5
0.28033	8
0.28400	12
0.28767	19
0.29133	26
0.29500	35
0.29867	45
0.30233	54
0.30600	59
0.30967	63
0.31333	65
0.31700	64
0.32067	63
0.32433	69
0.32800	79
0.33167	87
0.33533	87
0.33900	83
0.34267	80
0.34633	78
0.35000	78
0.35367	82
0.35733	85
0.36100	85
0.36467	83
0.36833	84
0.37200	87
0.37567	86
0.37933	82
0.38300	77
0.38667	76
0.39033	79
0.39400	83
0.39767	85
0.40133	84
0.40500	81
0.40867	78
0.41233	75
0.41600	71
0.41967	65
0.42333	58
0.42700	55
0.43067	59
0.43433	61
0.43800	55
0.44167	50
0.44533	48
0.44900	46
0.45267	43
0.45633	37
0.46000	29
0.46367	20
0.46733	12
0.47100	9
0.47467	15
0.47833	20
0.48200	22
0.48567	17
0.48933	10
0.49300	6
0.49667	5
0.50033	4
0.50400	0
0.50767	-0
0.51133	-0
0.51500	3
0.51867	3
0.52233	-2
0.52600	-10
0.52967	-16
0.53333	-17
0.53700	-14
0.54067	-6
0.54433	4
0.54800	9
0.55167	11
0.55533	11
0.55900	7
0.56267	2
0.56633	2
0.57000	4
0.57367	7
0.57733	10
0.58100	13
0.58467	14
0.58833	12
0.59200	2
0.59567	-13
0.59933	-24
0.60300	-32
0.60667	-37
0.61033	-34
0.61400	-29
0.61767	-24
0.62133	-25
0.62500	-28
0.62867	-29
0.63233	-28
0.63600	-27
0.63967	-24
0.64333	-20
0.64700	-10
0.65067	0
0.65433	7
0.65800	11
0.66167	13
0.66533	7
0.66900	-5
0.67267	-14
0.67633	-18
0.68000	-19
0.68367	-20
0.68733	-17
0.69100	-13
0.69467	-10
0.69833	-9
0.70200	-9
0.70567	-9
0.70933	-9
0.71300	-6
0.71667	-9
0.72033	-11
0.72400	-13
0.72767	-14
0.73133	-15
0.73500	-16
0.73867	-19
0.74233	-25
0.74600	-29
0.74967	-28
0.75333	-24
0.75700	-17
0.76067	-11
0.76433	-13
0.76800	-19
0.77167	-26
0.77533	-30
0.77900	-29
0.78267	-26
0.78633	-26
0.79000	-28
0.79367	-27
0.79733	-24
0.80100	-20
0.80467	-17
0.80833	-12
0.81200	-5
0.81567	-5
0.81933	-7
0.82300	-8
0.82667	-11
0.83033	-15
0.83400	-18
0.83767	-19
0.84133	-20
0.84500	-23
0.84867	-26
0.85233	-31
0.85600	-39
0.85967	-46
0.86333	-46
0.86700	-41
0.87067	-28
0.87433	-13
0.87800	-7
0.88167	-4
0.88533	-6
0.88900	-11
0.89267	-20
0.89633	-30
0.90000	-40
0.90367	-45
0.90733	-46
0.91100	-47
0.91467	-45
0.91833	-41
0.92200	-36
0.92567	-33
0.92933	-30
0.93300	-25
0.93667	-23
0.94033	-23
0.94400	-24
0.94767	-25
0.95133	-22
0.95500	-14
0.95867	-10
0.96233	-13
0.96600	-22
0.96967	-34
0.97333	-43
0.97700	-48
0.98067	-51
0.98433	-50
0.98800	-46
0.99167	-42
0.99533	-38
0.99900	-35
1.00267	-33
1.00633	-31
1.01000	-30
1.01367	-34
1.01733	-37
1.02100	-35
1.02467	-31
1.02833	-25
1.03200	-20
1.03567	-21
1.03933	-26
1.04300	-30
1.04667	-32
1.05033	-33
1.05400	-31
1.05767	-24
1.06133	-13
1.06500	-2
1.06867	1
1.07233	-4
1.07600	-12
1.07967	-19
1.08333	-21
1.08700	-18
1.09067	-15
1.09433	-20
1.09800	-30
1.10167	-36
1.10533	-39
1.10900	-40
1.11267	-41
1.11633	-43
1.12000	-46
1.12367	-46
1.12733	-45
1.13100	-43
1.13467	-43
1.13833	-40
1.14200	-38
1.14567	-34
1.14933	-30
1.15300	-27
1.15667	-26
1.16033	-25
1.16400	-25
1.16767	-25
1.17133	-27
1.17500	-33
1.17867	-40
1.18233	-41
1.18600	-37
1.18967	-37
1.19333	-43
1.19700	-47
1.20067	-49
1.20433	-43
1.20800	-29
1.21167	-13
1.21533	-5
1.21900	-2
1.22267	-3
1.22633	-9
1.23000	-22
1.23367	-30
1.23733	-33
1.24100	-37
1.24467	-44
1.24833	-54
1.25200	-62
1.25567	-60
1.25933	-55
1.26300	-53
1.26667	-47
1.27033	-45
1.27400	-43
1.27767	-37
1.28133	-32
1.28500	-30
1.28867	-29
1.29233	-31
1.29600	-37
1.29967	-39
1.30333	-35
1.30700	-29
1.31067	-25
1.31433	-22
1.31800	-16
1.32167	-12
1.32533	-14
1.32900	-19
1.33267	-22
1.33633	-29
1.34000	-34
1.34367	-37
1.34733	-39
1.35100	-35
1.35467	-29
1.35833	-29
1.36200	-31
1.36567	-30
1.36933	-28
1.37300	-28
1.37667	-30
1.38033	-31
1.38400	-34
1.38767	-35
1.39133	-29
1.39500	-18
1.39867	-9
1.40233	-5
1.40600	-6
1.40967	-6
1.41333	-2
1.41700	1
1.42067	1
1.42433	-1
1.42800	-4
1.43167	-8
1.43533	-10
1.43900	-2
1.44267	35
1.44633	163
1.45000	399
1.45367	586
1.45733	630
1.46100	545
1.46467	382
1.46833	190
1.47200	21
1.47567	-89
1.47933	-147
1.48300	-181
1.48667	-207
1.49033	-231
1.49400	-257
1.49767	-285
1.50133	-314
1.50500	-338
1.50867	-355
1.51233	-366
1.51600	-372
1.51967	-376
1.52333	-371
1.52700	-360
1.53067	-347
1.53433	-331
1.53800	-275
1.54167	-51
1.54533	618
1.54900	1957
1.55267	3852
1.55633	5894
1.56000	7705
1.56367	9085
1.56733	9925
1.57100	10095
1.57467	9488
1.57833	8206
1.58200	6561
1.58567	4907
1.58933	3481
1.59300	2372
1.59667	1560
1.60033	984
1.60400	589
1.60767	325
1.61133	155
1.61500	54
1.61867	-6
1.62233	-41
1.62600	-63
1.62967	-79
1.63333	-91
1.63700	-96
1.64067	-102
1.64433	-110
1.64800	-116
1.65167	-119
1.65533	-116
1.65900	-106
1.66267	-96
1.66633	-90
1.67000	-90
1.67367	-92
1.67733	-90
1.68100	-87
1.68467	-86
1.68833	-84
1.69200	-84
1.69567	-87
1.69933	-90
1.70300	-91
1.70667	-89
1.71033	-88
1.71400	-84
1.71767	-76
1.72133	-68
1.72500	-65
1.72867	-66
1.73233	-70
1.73600	-72
1.73967	-73
1.74333	-74
1.74700	-77
1.75067	-82
1.75433	-83
1.75800	-77
1.76167	-66
1.76533	-55
1.76900	-47
1.77267	-48
1.77633	-54
1.78000	-61
1.78367	-69
1.78733	-75
1.79100	-78
1.79467	-83
1.79833	-86
1.80200	-86
1.80567	-87
1.80933	-88
1.81300	-86
1.81667	-81
1.82033	-73
1.82400	-65
1.82767	-57
1.83133	-52
1.83500	-54
1.83867	-57
1.84233	-58
1.84600	-57
1.84967	-57
1.85333	-56
1.85700	-54
1.86067	-51
1.86433	-50
1.86800	-54
1.87167	-56
1.87533	-51
1.87900	-39
1.88267	-31
1.88633	-28
1.89000	-32
1.89367	-39
1.89733	-46
1.90100	-49
1.90467	-51
1.90833	-49
1.91200	-40
1.91567	-33
1.91933	-30
1.92300	-30
1.92667	-28
1.93033	-30
1.93400	-35
1.93767	-40
1.94133	-40
1.94500	-33
1.94867	-18
1.95233	3
1.95600	91
1.95967	620
1.96333	3290
1.96700	13609
1.97067	44003
1.97433	113031
1.97800	234938
1.98167	405481
1.98533	599118
1.98900	781134
1.99267	921424
1.99633	999975
2.00000	1007255
2.00367	945819
2.00733	830724
2.01100	685620
2.01467	535510
2.01833	399525
2.02200	287707
2.02567	202079
2.02933	139774
2.03300	96032
2.03667	66040
2.04033	45763
2.04400	32154
2.04767	23024
2.05133	16863
2.05500	12665
2.05867	9766
2.06233	7732
2.06600	6272
2.06967	5202
2.07333	4399
2.07700	3783
2.08067	3296
2.08433	2903
2.08800	2584
2.09167	2322
2.09533	2106
2.09900	1929
2.10267	1782
2.10633	1655
2.11000	1543
2.11367	1444
2.11733	1354
2.12100	1265
2.12467	1185
2.12833	1111
2.13200	1046
2.13567	991
2.13933	943
2.14300	899
2.14667	862
2.15033	829
2.15400	799
2.15767	770
2.16133	743
2.16500	718
2.16867	692
2.17233	668
2.17600	644
2.17967	621
2.18333	599
2.18700	580
2.19067	564
2.19433	547
2.19800	530
2.20167	513
2.20533	499
2.20900	486
2.21267	471
2.21633	456
2.22000	440
2.22367	424
2.22733	415
2.23100	412
2.23467	413
2.23833	411
2.24200	405
2.24567	400
2.24933	392
2.25300	380
2.25667	373
2.26033	370
2.26400	369
2.26767	366
2.27133	362
2.27500	355
2.27867	347
2.28233	341
2.28600	334
2.28967	325
2.29333	317
2.29700	313
2.30067	311
2.30433	310
2.30800	308
2.31167	308
2.31533	306
2.31900	301
2.32267	295
2.32633	291
2.33000	294
2.33367	296
2.33733	294
2.34100	287
2.34467	278
2.34833	270
2.35200	260
2.35567	250
2.35933	244
2.36300	243
2.36667	245
2.37033	246
2.37400	252
2.37767	255
2.38133	251
2.38500	243
2.38867	234
2.39233	230
2.39600	230
2.39967	233
2.40333	231
2.40700	227
2.41067	225
2.41433	226
2.41800	230
2.42167	237
2.42533	239
2.42900	236
2.43267	230
2.43633	225
2.44000	221
2.44367	219
2.44733	220
2.45100	228
2.45467	240
2.45833	241
2.46200	232
2.46567	222
2.46933	219
2.47300	214
2.47667	210
2.48033	210
2.48400	214
2.48767	222
2.49133	230
2.49500	231
2.49867	226
2.50233	220
2.50600	214
2.50967	210
2.51333	206
2.51700	204
2.52067	210
2.52433	219
2.52800	226
2.53167	229
2.53533	226
2.53900	220
2.54267	210
2.54633	198
2.55000	191
2.55367	196
2.55733	208
2.56100	220
2.56467	226
2.56833	224
2.57200	216
2.57567	205
2.57933	196
2.58300	191
2.58667	186
2.59033	182
2.59400	177
2.59767	168
2.60133	162
2.60500	155
2.60867	150
2.61233	150
2.61600	155
2.61967	160
2.62333	165
2.62700	172
2.63067	180
2.63433	189
2.63800	193
2.64167	187
2.64533	177
2.64900	171
2.65267	170
2.65633	175
2.66000	184
2.66367	190
2.66733	191
2.67100	191
2.67467	191
2.67833	191
2.68200	190
2.68567	190
2.68933	193
2.69300	197
2.69667	198
2.70033	196
2.70400	195
2.70767	200
2.71133	207
2.71500	210
2.71867	213
2.72233	215
2.72600	217
2.72967	223
2.73333	230
2.73700	229
2.74067	219
2.74433	207
2.74800	197
2.75167	188
2.75533	182
2.75900	183
2.76267	191
2.76633	198
2.77000	200
2.77367	198
2.77733	195
2.78100	194
2.78467	202
2.78833	208
2.79200	211
2.79567	211
2.79933	209
2.80300	214
2.80667	221
2.81033	225
2.81400	225
2.81767	222
2.82133	217
2.82500	204
2.82867	190
2.83233	180
2.83600	180
2.83967	188
2.84333	195
2.84700	198
2.85067	203
2.85433	208
2.85800	210
2.86167	210
2.86533	210
2.86900	210
2.87267	210
2.87633	209
2.88000	210
2.88367	211
2.88733	211
2.89100	208
2.89467	207
2.89833	205
2.90200	205
2.90567	205
2.90933	204
2.91300	202
2.91667	201
2.92033	205
2.92400	211
2.92767	214
2.93133	213
2.93500	212
2.93867	212
2.94233	211
2.94600	207
2.94967	204
2.95333	204
2.95700	203
2.96067	204
2.96433	206
2.96800	207
2.97167	207
2.97533	207
2.97900	204
2.98267	202
2.98633	203
2.99000	205
2.99367	212
2.99733	218
3.00100	220
3.00467	220
3.00833	217
3.01200	216
3.01567	219
3.01933	219
3.02300	221
3.02667	221
3.03033	212
3.03400	199
3.03767	189
3.04133	184
3.04500	183
3.04867	183
3.05233	186
3.05600	189
3.05967	193
3.06333	197
3.06700	202
3.07067	202
3.07433	200
3.07800	195
3.08167	192
3.08533	195
3.08900	196
3.09267	198
3.09633	204
3.10000	209
3.10367	209
3.10733	203
3.11100	199
3.11467	195
3.11833	198
3.12200	199
3.12567	198
3.12933	197
3.13300	193
3.13667	186
3.14033	179
3.14400	180
3.14767	192
3.15133	197
3.15500	193
3.15867	184
3.16233	176
3.16600	170
3.16967	166
3.17333	164
3.17700	166
3.18067	169
3.18433	180
3.18800	192
3.19167	197
3.19533	196
3.19900	192
3.20267	184
3.20633	174
3.21000	168
3.21367	166
3.21733	167
3.22100	170
3.22467	176
3.22833	180
3.23200	184
3.23567	188
3.23933	182
3.24300	170
3.24667	161
3.25033	156
3.25400	156
3.25767	158
3.26133	160
3.26500	165
3.26867	172
3.27233	183
3.27600	193
3.27967	197
3.28333	193
3.28700	184
3.29067	175
3.29433	168
3.29800	163
3.30167	161
3.30533	160
3.30900	159
3.31267	152
3.31633	144
3.32000	141
3.32367	142
3.32733	144
3.33100	147
3.33467	154
3.33833	164
3.34200	168
3.34567	168
3.34933	161
3.35300	154
3.35667	146
3.36033	137
3.36400	134
3.36767	140
3.37133	150
3.37500	160
3.37867	167
3.38233	168
3.38600	167
3.38967	157
3.39333	145
3.39700	138
3.40067	137
3.40433	138
3.40800	141
3.41167	143
3.41533	146
3.41900	149
3.42267	148
3.42633	145
3.43000	146
3.43367	153
3.43733	157
3.44100	154
3.44467	150
3.44833	147
3.45200	145
3.45567	144
3.45933	143
3.46300	142
3.46667	142
3.47033	141
3.47400	134
3.47767	131
3.48133	129
3.48500	126
3.48867	122
3.49233	117
3.49600	117
3.49967	120
3.50333	125
3.50700	130
3.51067	135
3.51433	143
3.51800	150
3.52167	157
3.52533	164
3.52900	168
3.53267	164
3.53633	157
3.54000	148
3.54367	135
3.54733	120
3.55100	111
3.55467	112
3.55833	114
3.56200	110
3.56567	102
3.56933	96
3.57300	99
3.57667	105
3.58033	114
3.58400	124
3.58767	133
3.59133	141
3.59500	145
3.59867	143
3.60233	140
3.60600	137
3.60967	137
3.61333	138
3.61700	134
3.62067	125
3.62433	115
3.62800	104
3.63167	98
3.63533	93
3.63900	89
3.64267	88
3.64633	92
3.65000	95
3.65367	97
3.65733	103
3.66100	112
3.66467	119
3.66833	123
3.67200	124
3.67567	119
3.67933	111
3.68300	103
3.68667	95
3.69033	89
3.69400	87
3.69767	93
3.70133	98
3.70500	100
3.70867	100
3.71233	103
3.71600	106
3.71967	108
3.72333	112
3.72700	116
3.73067	116
3.73433	110
3.73800	105
3.74167	105
3.74533	109
3.74900	114
3.75267	117
3.75633	124
3.76000	130
3.76367	127
3.76733	119
3.77100	111
3.77467	106
3.77833	106
3.78200	108
3.78567	110
3.78933	111
3.79300	109
3.79667	104
3.80033	94
3.80400	79
3.80767	66
3.81133	59
3.81500	61
3.81867	69
3.82233	77
3.82600	85
3.82967	94
3.83333	93
3.83700	93
3.84067	95
3.84433	98
3.84800	101
3.85167	105
3.85533	108
3.85900	104
3.86267	97
3.86633	85
3.87000	78
3.87367	80
3.87733	91
3.88100	99
3.88467	95
3.88833	86
3.89200	83
3.89567	87
3.89933	88
3.90300	81
3.90667	73
3.91033	70
3.91400	69
3.91767	64
3.92133	58
3.92500	55
3.92867	54
3.93233	57
3.93600	61
3.93967	70
3.94333	80
3.94700	89
3.95067	94
3.95433	98
3.95800	97
3.96167	94
3.96533	87
3.96900	80
3.97267	79
3.97633	87
3.98000	90
3.98367	84
3.98733	76
3.99100	72
3.99467	69
3.99833	63

[Chromatogram (Ch2)]
Interval(msec)	220
# of Points	1091
Start Time(min)	0.002
End Time(min)	3.998
R.Time (min)	Intensity
0.00167	-0
0.00533	-0
0.00900	0
0.01267	-0
0.01633	-0
0.02000	-0
0.02367	-0
0.02733	-0
0.03100	-0
0.03467	0
0.03833	0
0.04200	0
0.04567	0
0.04933	0
0.05300	0
0.05667	1
0.06033	1
0.06400	1
0.06767	1
0.07133	1
0.07500	1
0.07867	1
0.08233	1
0.08600	0
0.08967	0
0.09333	0
0.09700	-0
0.10067	-0
0.10433	-0
0.10800	-1
0.11167	-1
0.11533	-1
0.11900	-1
0.12267	-1
0.12633	-2
0.13000	-2
0.13367	-2
0.13733	-2
0.14100	-2
0.14467	-2
0.14833	-2
0.15200	-2
0.15567	-2
0.15933	-1
0.16300	-1
0.16667	-1
0.17033	-1
0.17400	-1
0.17767	-1
0.18133	-0
0.18500	-0
0.18867	0
0.19233	0
0.19600	1
0.19967	1
0.20333	1
0.20700	1
0.21067	1
0.21433	1
0.21800	0
0.22167	0
0.22533	0
0.22900	-0
0.23267	-0
0.23633	-1
0.24000	-1
0.24367	-1
0.24733	-1
0.25100	-0
0.25467	-0
0.25833	-0
0.26200	0
0.26567	1
0.26933	1
0.27300	1
0.27667	2
0.28033	2
0.28400	2
0.28767	2
0.29133	2
0.29500	1
0.29867	1
0.30233	1
0.30600	1
0.30967	1
0.31333	1
0.31700	1
0.32067	1
0.32433	1
0.32800	1
0.33167	1
0.33533	1
0.33900	1
0.34267	1
0.34633	1
0.35000	0
0.35367	0
0.35733	-0
0.36100	-1
0.36467	-1
0.36833	-1
0.37200	-1
0.37567	-1
0.37933	-1
0.38300	-1
0.38667	-1
0.39033	-0
0.39400	-1
0.39767	-1
0.40133	-1
0.40500	-1
0.40867	-1
0.41233	-1
0.41600	-1
0.41967	-1
0.42333	-1
0.42700	-1
0.43067	-1
0.43433	-1
0.43800	-1
0.44167	-1
0.44533	-1
0.44900	-1
0.45267	-1
0.45633	-1
0.46000	-1
0.46367	-2
0.46733	-2
0.47100	-3
0.47467	-3
0.47833	-3
0.48200	-4
0.48567	-4
0.48933	-4
0.49300	-4
0.49667	-3
0.50033	-3
0.50400	-3
0.50767	-3
0.51133	-3
0.51500	-3
0.51867	-2
0.52233	-3
0.52600	-3
0.52967	-3
0.53333	-3
0.53700	-2
0.54067	-2
0.54433	-3
0.54800	-3
0.55167	-2
0.55533	-2
0.55900	-2
0.56267	-2
0.56633	-2
0.57000	-2
0.57367	-2
0.57733	-2
0.58100	-2
0.58467	-2
0.58833	-2
0.59200	-2
0.59567	-2
0.59933	-2
0.60300	-2
0.60667	-2
0.61033	-1
0.61400	-1
0.61767	-1
0.62133	-1
0.62500	-0
0.62867	-0
0.63233	0
0.63600	1
0.63967	1
0.64333	1
0.64700	1
0.65067	1
0.65433	1
0.65800	1
0.66167	1
0.66533	1
0.66900	1
0.67267	1
0.67633	0
0.68000	0
0.68367	0
0.68733	0
0.69100	-0
0.69467	-0
0.69833	-1
0.70200	-1
0.70567	-1
0.70933	-2
0.71300	-2
0.71667	-2
0.72033	-2
0.72400	-3
0.72767	-3
0.73133	-3
0.73500	-3
0.73867	-3
0.74233	-3
0.74600	-2
0.74967	-2
0.75333	-2
0.75700	-2
0.76067	-2
0.76433	-2
0.76800	-2
0.77167	-2
0.77533	-2
0.77900	-1
0.78267	-1
0.78633	-1
0.79000	-1
0.79367	-0
0.79733	0
0.80100	0
0.80467	1
0.80833	1
0.81200	2
0.81567	2
0.81933	2
0.82300	2
0.82667	2
0.83033	1
0.83400	1
0.83767	1
0.84133	1
0.84500	1
0.84867	0
0.85233	0
0.85600	0
0.85967	-0
0.86333	-0
0.86700	-1
0.87067	-1
0.87433	-1
0.87800	-1
0.88167	-2
0.88533	-2
0.88900	-2
0.89267	-2
0.89633	-2
0.90000	-2
0.90367	-2
0.90733	-2
0.91100	-2
0.91467	-2
0.91833	-1
0.92200	-2
0.92567	-2
0.92933	-2
0.93300	-2
0.93667	-2
0.94033	-2
0.94400	-2
0.94767	-2
0.95133	-3
0.95500	-3
0.95867	-2
0.96233	-2
0.96600	-2
0.96967	-2
0.97333	-1
0.97700	-1
0.98067	-0
0.98433	0
0.98800	0
0.99167	1
0.99533	1
0.99900	2
1.00267	2
1.00633	2
1.01000	2
1.01367	2
1.01733	1
1.02100	1
1.02467	0
1.02833	-0
1.03200	-1
1.03567	-2
1.03933	-2
1.04300	-2
1.04667	-3
1.05033	-3
1.05400	-3
1.05767	-3
1.06133	-3
1.06500	-3
1.06867	-3
1.07233	-3
1.07600	-3
1.07967	-3
1.08333	-4
1.08700	-4
1.09067	-4
1.09433	-4
1.09800	-4
1.10167	-4
1.10533	-4
1.10900	-4
1.11267	-4
1.11633	-4
1.12000	-4
1.12367	-4
1.12733	-4
1.13100	-4
1.13467	-3
1.13833	-3
1.14200	-3
1.14567	-2
1.14933	-2
1.15300	-1
1.15667	-1
1.16033	-1
1.16400	-1
1.16767	-1
1.17133	-1
1.17500	-1
1.17867	-1
1.18233	-0
1.18600	-0
1.18967	-0
1.19333	0
1.19700	0
1.20067	0
1.20433	0
1.20800	-0
1.21167	-1
1.21533	-1
1.21900	-2
1.22267	-2
1.22633	-3
1.23000	-3
1.23367	-3
1.23733	-3
1.24100	-3
1.24467	-3
1.24833	-3
1.25200	-2
1.25567	-2
1.25933	-2
1.26300	-2
1.26667	-2
1.27033	-3
1.27400	-3
1.27767	-3
1.28133	-3
1.28500	-3
1.28867	-4
1.29233	-3
1.29600	-3
1.29967	-3
1.30333	-3
1.30700	-2
1.31067	-2
1.31433	-2
1.31800	-2
1.32167	-2
1.32533	-1
1.32900	-1
1.33267	-1
1.33633	-1
1.34000	-1
1.34367	-1
1.34733	-1
1.35100	-1
1.35467	-1
1.35833	-1
1.36200	-1
1.36567	-1
1.36933	-1
1.37300	-1
1.37667	-1
1.38033	-1
1.38400	-1
1.38767	-1
1.39133	-1
1.39500	-1
1.39867	-1
1.40233	-1
1.40600	-0
1.40967	-0
1.41333	-0
1.41700	-0
1.42067	-0
1.42433	0
1.42800	0
1.43167	1
1.43533	1
1.43900	1
1.44267	1
1.44633	1
1.45000	2
1.45367	2
1.45733	2
1.46100	2
1.46467	2
1.46833	2
1.47200	2
1.47567	1
1.47933	1
1.48300	0
1.48667	-1
1.49033	-1
1.49400	-2
1.49767	-3
1.50133	-3
1.50500	-3
1.50867	-4
1.51233	-4
1.51600	-5
1.51967	-5
1.52333	-5
1.52700	-5
1.53067	-5
1.53433	-5
1.53800	-4
1.54167	-4
1.54533	-4
1.54900	-4
1.55267	-4
1.55633	-4
1.56000	-4
1.56367	-3
1.56733	-3
1.57100	-3
1.57467	-3
1.57833	-3
1.58200	-3
1.58567	-3
1.58933	-3
1.59300	-4
1.59667	-4
1.60033	-5
1.60400	-6
1.60767	-7
1.61133	-9
1.61500	-11
1.61867	-13
1.62233	-16
1.62600	-18
1.62967	-21
1.63333	-24
1.63700	-28
1.64067	-31
1.64433	-35
1.64800	-38
1.65167	-42
1.65533	-46
1.65900	-50
1.66267	-54
1.66633	-58
1.67000	-63
1.67367	-67
1.67733	-72
1.68100	-77
1.68467	-81
1.68833	-85
1.69200	-89
1.69567	-92
1.69933	-94
1.70300	-97
1.70667	-98
1.71033	-100
1.71400	-102
1.71767	-103
1.72133	-104
1.72500	-106
1.72867	-107
1.73233	-108
1.73600	-109
1.73967	-110
1.74333	-110
1.74700	-110
1.75067	-109
1.75433	-109
1.75800	-108
1.76167	-108
1.76533	-106
1.76900	-106
1.77267	-105
1.77633	-105
1.78000	-105
1.78367	-106
1.78733	-106
1.79100	-107
1.79467	-108
1.79833	-109
1.80200	-110
1.80567	-111
1.80933	-111
1.81300	-112
1.81667	-112
1.82033	-113
1.82400	-113
1.82767	-113
1.83133	-113
1.83500	-113
1.83867	-113
1.84233	-114
1.84600	-114
1.84967	-114
1.85333	-113
1.85700	-113
1.86067	-113
1.86433	-114
1.86800	-113
1.87167	-114
1.87533	-114
1.87900	-114
1.88267	-115
1.88633	-115
1.89000	-115
1.89367	-115
1.89733	-115
1.90100	-115
1.90467	-115
1.90833	-115
1.91200	-115
1.91567	-114
1.91933	-114
1.92300	-113
1.92667	-112
1.93033	-112
1.93400	-111
1.93767	-111
1.94133	-110
1.94500	-110
1.94867	-110
1.95233	-109
1.95600	-109
1.95967	-108
1.96333	-108
1.96700	-107
1.97067	-107
1.97433	-107
1.97800	-107
1.98167	-107
1.98533	-107
1.98900	-107
1.99267	-106
1.99633	-106
2.00000	-106
2.00367	-106
2.00733	-105
2.01100	-105
2.01467	-104
2.01833	-104
2.02200	-104
2.02567	-104
2.02933	-104
2.03300	-104
2.03667	-105
2.04033	-105
2.04400	-105
2.04767	-104
2.05133	-104
2.05500	-103
2.05867	-102
2.06233	-102
2.06600	-101
2.06967	-101
2.07333	-100
2.07700	-100
2.08067	-100
2.08433	-101
2.08800	-101
2.09167	-101
2.09533	-101
2.09900	-101
2.10267	-101
2.10633	-100
2.11000	-99
2.11367	-99
2.11733	-98
2.12100	-98
2.12467	-98
2.12833	-98
2.13200	-98
2.13567	-98
2.13933	-97
2.14300	-96
2.14667	-96
2.15033	-94
2.15400	-93
2.15767	-93
2.16133	-92
2.16500	-91
2.16867	-91
2.17233	-91
2.17600	-91
2.17967	-91
2.18333	-91
2.18700	-92
2.19067	-92
2.19433	-92
2.19800	-92
2.20167	-91
2.20533	-91
2.20900	-90
2.21267	-89
2.21633	-89
2.22000	-88
2.22367	-88
2.22733	-87
2.23100	-87
2.23467	-86
2.23833	-86
2.24200	-85
2.24567	-85
2.24933	-85
2.25300	-84
2.25667	-84
2.26033	-84
2.26400	-84
2.26767	-84
2.27133	-84
2.27500	-84
2.27867	-84
2.28233	-83
2.28600	-83
2.28967	-82
2.29333	-81
2.29700	-81
2.30067	-80
2.30433	-80
2.30800	-79
2.31167	-79
2.31533	-79
2.31900	-79
2.32267	-79
2.32633	-79
2.33000	-78
2.33367	-78
2.33733	-77
2.34100	-76
2.34467	-76
2.34833	-75
2.35200	-74
2.35567	-73
2.35933	-73
2.36300	-72
2.36667	-71
2.37033	-70
2.37400	-69
2.37767	-67
2.38133	-64
2.38500	-60
2.38867	-56
2.39233	-52
2.39600	-48
2.39967	-44
2.40333	-39
2.40700	-35
2.41067	-30
2.41433	-26
2.41800	-22
2.42167	-19
2.42533	-16
2.42900	-14
2.43267	-13
2.43633	-12
2.44000	-11
2.44367	-10
2.44733	-8
2.45100	-7
2.45467	-6
2.45833	-4
2.46200	-3
2.46567	-3
2.46933	-2
2.47300	-1
2.47667	-0
2.48033	0
2.48400	1
2.48767	2
2.49133	4
2.49500	5
2.49867	6
2.50233	7
2.50600	8
2.50967	9
2.51333	10
2.51700	11
2.52067	11
2.52433	12
2.52800	12
2.53167	12
2.53533	12
2.53900	12
2.54267	12
2.54633	12
2.55000	13
2.55367	13
2.55733	14
2.56100	14
2.56467	15
2.56833	16
2.57200	17
2.57567	17
2.57933	18
2.58300	18
2.58667	19
2.59033	19
2.59400	19
2.59767	20
2.60133	20
2.60500	20
2.60867	21
2.61233	21
2.61600	21
2.61967	21
2.62333	21
2.62700	21
2.63067	21
2.63433	22
2.63800	22
2.64167	22
2.64533	23
2.64900	23
2.65267	23
2.65633	23
2.66000	23
2.66367	22
2.66733	22
2.67100	22
2.67467	23
2.67833	23
2.68200	23
2.68567	23
2.68933	23
2.69300	23
2.69667	23
2.70033	23
2.70400	23
2.70767	23
2.71133	24
2.71500	24
2.71867	25
2.72233	26
2.72600	26
2.72967	26
2.73333	26
2.73700	26
2.74067	26
2.74433	25
2.74800	25
2.75167	24
2.75533	24
2.75900	23
2.76267	23
2.76633	23
2.77000	23
2.77367	23
2.77733	23
2.78100	24
2.78467	24
2.78833	24
2.79200	25
2.79567	25
2.79933	26
2.80300	27
2.80667	27
2.81033	27
2.81400	28
2.81767	28
2.82133	29
2.82500	29
2.82867	29
2.83233	29
2.83600	29
2.83967	28
2.84333	26
2.84700	23
2.85067	18
2.85433	11
2.85800	-0
2.86167	-16
2.86533	-35
2.86900	-60
2.87267	-90
2.87633	-126
2.88000	-167
2.88367	-214
2.88733	-266
2.89100	-324
2.89467	-386
2.89833	-452
2.90200	-523
2.90567	-597
2.90933	-674
2.91300	-754
2.91667	-837
2.92033	-923
2.92400	-1012
2.92767	-1102
2.93133	-1195
2.93500	-1289
2.93867	-1383
2.94233	-1468
2.94600	-1530
2.94967	-1559
2.95333	-1551
2.95700	-1508
2.96067	-1435
2.96433	-1342
2.96800	-1235
2.97167	-1123
2.97533	-1010
2.97900	-900
2.98267	-795
2.98633	-698
2.99000	-609
2.99367	-529
2.99733	-458
3.00100	-395
3.00467	-339
3.00833	-290
3.01200	-248
3.01567	-212
3.01933	-180
3.02300	-153
3.02667	-129
3.03033	-109
3.03400	-92
3.03767	-77
3.04133	-65
3.04500	-54
3.04867	-45
3.05233	-37
3.05600	-30
3.05967	-25
3.06333	-20
3.06700	-16
3.07067	-12
3.07433	-9
3.07800	-6
3.08167	-4
3.08533	-2
3.08900	-0
3.09267	2
3.09633	3
3.10000	5
3.10367	6
3.10733	7
3.11100	8
3.11467	9
3.11833	9
3.12200	10
3.12567	11
3.12933	11
3.13300	12
3.13667	12
3.14033	13
3.14400	13
3.14767	14
3.15133	15
3.15500	15
3.15867	16
3.16233	16
3.16600	16
3.16967	16
3.17333	16
3.17700	16
3.18067	17
3.18433	17
3.18800	17
3.19167	17
3.19533	18
3.19900	18
3.20267	18
3.20633	19
3.21000	19
3.21367	19
3.21733	19
3.22100	19
3.22467	20
3.22833	20
3.23200	20
3.23567	21
3.23933	21
3.24300	21
3.24667	22
3.25033	22
3.25400	23
3.25767	23
3.26133	23
3.26500	24
3.26867	24
3.27233	24
3.27600	24
3.27967	25
3.28333	25
3.28700	25
3.29067	25
3.29433	26
3.29800	26
3.30167	26
3.30533	27
3.30900	27
3.31267	27
3.31633	27
3.32000	27
3.32367	27
3.32733	27
3.33100	27
3.33467	27
3.33833	27
3.34200	27
3.34567	27
3.34933	27
3.35300	26
3.35667	26
3.36033	26
3.36400	26
3.36767	26
3.37133	26
3.37500	26
3.37867	26
3.38233	26
3.38600	26
3.38967	26
3.39333	26
3.39700	26
3.40067	26
3.40433	26
3.40800	26
3.41167	26
3.41533	26
3.41900	26
3.42267	26
3.42633	26
3.43000	26
3.43367	27
3.43733	27
3.44100	27
3.44467	27
3.44833	27
3.45200	27
3.45567	27
3.45933	27
3.46300	27
3.46667	27
3.47033	27
3.47400	27
3.47767	27
3.48133	26
3.48500	26
3.48867	26
3.49233	26
3.49600	26
3.49967	26
3.50333	26
3.50700	26
3.51067	27
3.51433	27
3.51800	27
3.52167	27
3.52533	27
3.52900	27
3.53267	27
3.53633	27
3.54000	28
3.54367	28
3.54733	28
3.55100	28
3.55467	28
3.55833	28
3.56200	28
3.56567	28
3.56933	28
3.57300	28
3.57667	28
3.58033	28
3.58400	28
3.58767	28
3.59133	28
3.59500	27
3.59867	27
3.60233	27
3.60600	27
3.60967	26
3.61333	26
3.61700	26
3.62067	26
3.62433	26
3.62800	26
3.63167	26
3.63533	27
3.63900	27
3.64267	27
3.64633	27
3.65000	27
3.65367	27
3.65733	27
3.66100	27
3.66467	26
3.66833	26
3.67200	26
3.67567	26
3.67933	26
3.68300	27
3.68667	27
3.69033	27
3.69400	27
3.69767	27
3.70133	28
3.70500	27
3.70867	27
3.71233	27
3.71600	27
3.71967	27
3.72333	27
3.72700	26
3.73067	26
3.73433	26
3.73800	26
3.74167	26
3.74533	26
3.74900	26
3.75267	26
3.75633	26
3.76000	26
3.76367	26
3.76733	26
3.77100	27
3.77467	27
3.77833	27
3.78200	27
3.78567	27
3.78933	27
3.79300	27
3.79667	27
3.80033	26
3.80400	26
3.80767	27
3.81133	27
3.81500	27
3.81867	27
3.82233	27
3.82600	27
3.82967	27
3.83333	27
3.83700	27
3.84067	27
3.84433	27
3.84800	27
3.85167	27
3.85533	27
3.85900	27
3.86267	27
3.86633	27
3.87000	27
3.87367	27
3.87733	27
3.88100	27
3.88467	27
3.88833	27
3.89200	27
3.89567	27
3.89933	27
3.90300	28
3.90667	27
3.91033	27
3.91400	27
3.91767	27
3.92133	27
3.92500	27
3.92867	27
3.93233	27
3.93600	27
3.93967	28
3.94333	28
3.94700	28
3.95067	28
3.95433	28
3.95800	28
3.96167	28
3.96533	28
3.96900	28
3.97267	28
3.97633	27
3.98000	27
3.98367	27
3.98733	27
3.99100	27
3.99467	27
3.99833	27

[Chromatogram (Ch3)]
Interval(msec)	220
# of Points	1091
Start Time(min)	0.002
End Time(min)	3.998
R.Time (min)	Intensity
0.00167	-1
0.00533	-2
0.00900	0
0.01267	1
0.01633	1
0.02000	2
0.02367	4
0.02733	4
0.03100	3
0.03467	1
0.03833	-1
0.04200	-2
0.04567	-2
0.04933	-1
0.05300	3
0.05667	4
0.06033	3
0.06400	3
0.06767	1
0.07133	-2
0.07500	-2
0.07867	-2
0.08233	-3
0.08600	-5
0.08967	-5
0.09333	-6
0.09700	-4
0.10067	-3
0.10433	-2
0.10800	-0
0.11167	1
0.11533	1
0.11900	-0
0.12267	-3
0.12633	-5
0.13000	-4
0.13367	-3
0.13733	-2
0.14100	-1
0.14467	0
0.14833	2
0.15200	2
0.15567	1
0.15933	-2
0.16300	-2
0.16667	-2
0.17033	-2
0.17400	-3
0.17767	-2
0.18133	-1
0.18500	1
0.18867	5
0.19233	6
0.19600	4
0.19967	3
0.20333	1
0.20700	1
0.21067	1
0.21433	0
0.21800	1
0.22167	2
0.22533	3
0.22900	2
0.23267	2
0.23633	2
0.24000	-0
0.24367	-2
0.24733	-2
0.25100	-1
0.25467	1
0.25833	1
0.26200	2
0.26567	2
0.26933	3
0.27300	2
0.27667	1
0.28033	2
0.28400	3
0.28767	4
0.29133	4
0.29500	3
0.29867	2
0.30233	1
0.30600	0
0.30967	2
0.31333	4
0.31700	5
0.32067	6
0.32433	6
0.32800	5
0.33167	3
0.33533	2
0.33900	4
0.34267	4
0.34633	3
0.35000	2
0.35367	-0
0.35733	-1
0.36100	-0
0.36467	2
0.36833	2
0.37200	1
0.37567	0
0.37933	2
0.38300	2
0.38667	2
0.39033	3
0.39400	6
0.39767	6
0.40133	6
0.40500	6
0.40867	6
0.41233	4
0.41600	4
0.41967	4
0.42333	4
0.42700	3
0.43067	4
0.43433	3
0.43800	2
0.44167	2
0.44533	-0
0.44900	-1
0.45267	-0
0.45633	2
0.46000	2
0.46367	4
0.46733	4
0.47100	4
0.47467	4
0.47833	3
0.48200	2
0.48567	0
0.48933	-2
0.49300	-2
0.49667	1
0.50033	1
0.50400	2
0.50767	2
0.51133	-0
0.51500	1
0.51867	0
0.52233	0
0.52600	1
0.52967	1
0.53333	2
0.53700	4
0.54067	4
0.54433	4
0.54800	3
0.55167	4
0.55533	3
0.55900	3
0.56267	3
0.56633	3
0.57000	2
0.57367	2
0.57733	2
0.58100	3
0.58467	3
0.58833	1
0.59200	-1
0.59567	-3
0.59933	-2
0.60300	-2
0.60667	1
0.61033	3
0.61400	5
0.61767	7
0.62133	8
0.62500	7
0.62867	2
0.63233	0
0.63600	1
0.63967	4
0.64333	7
0.64700	9
0.65067	7
0.65433	4
0.65800	2
0.66167	1
0.66533	0
0.66900	1
0.67267	1
0.67633	2
0.68000	3
0.68367	5
0.68733	5
0.69100	5
0.69467	3
0.69833	3
0.70200	2
0.70567	2
0.70933	1
0.71300	2
0.71667	3
0.72033	4
0.72400	6
0.72767	5
0.73133	3
0.73500	4
0.73867	5
0.74233	5
0.74600	7
0.74967	8
0.75333	9
0.75700	10
0.76067	9
0.76433	9
0.76800	11
0.77167	10
0.77533	10
0.77900	7
0.78267	7
0.78633	9
0.79000	12
0.79367	10
0.79733	7
0.80100	5
0.80467	3
0.80833	4
0.81200	6
0.81567	10
0.81933	10
0.82300	10
0.82667	9
0.83033	10
0.83400	10
0.83767	12
0.84133	12
0.84500	10
0.84867	7
0.85233	6
0.85600	6
0.85967	7
0.86333	10
0.86700	12
0.87067	12
0.87433	10
0.87800	9
0.88167	9
0.88533	9
0.88900	10
0.89267	11
0.89633	12
0.90000	12
0.90367	12
0.90733	12
0.91100	11
0.91467	10
0.91833	9
0.92200	9
0.92567	11
0.92933	12
0.93300	12
0.93667	13
0.94033	12
0.94400	12
0.94767	12
0.95133	10
0.95500	10
0.95867	11
0.96233	11
0.96600	10
0.96967	9
0.97333	10
0.97700	11
0.98067	13
0.98433	15
0.98800	15
0.99167	14
0.99533	14
0.99900	14
1.00267	14
1.00633	15
1.01000	16
1.01367	18
1.01733	16
1.02100	14
1.02467	14
1.02833	15
1.03200	14
1.03567	13
1.03933	13
1.04300	13
1.04667	15
1.05033	15
1.05400	15
1.05767	15
1.06133	15
1.06500	14
1.06867	14
1.07233	13
1.07600	11
1.07967	9
1.08333	10
1.08700	13
1.09067	15
1.09433	16
1.09800	17
1.10167	19
1.10533	18
1.10900	17
1.11267	17
1.11633	16
1.12000	15
1.12367	15
1.12733	16
1.13100	17
1.13467	17
1.13833	18
1.14200	21
1.14567	22
1.14933	20
1.15300	19
1.15667	19
1.16033	20
1.16400	21
1.16767	20
1.17133	19
1.17500	19
1.17867	19
1.18233	18
1.18600	18
1.18967	18
1.19333	17
1.19700	17
1.20067	17
1.20433	18
1.20800	19
1.21167	19
1.21533	19
1.21900	19
1.22267	19
1.22633	20
1.23000	20
1.23367	21
1.23733	20
1.24100	20
1.24467	20
1.24833	19
1.25200	18
1.25567	19
1.25933	20
1.26300	21
1.26667	22
1.27033	22
1.27400	21
1.27767	20
1.28133	18
1.28500	16
1.28867	14
1.29233	15
1.29600	16
1.29967	17
1.30333	18
1.30700	20
1.31067	19
1.31433	18
1.31800	16
1.32167	16
1.32533	17
1.32900	19
1.33267	20
1.33633	21
1.34000	22
1.34367	21
1.34733	22
1.35100	25
1.35467	27
1.35833	27
1.36200	25
1.36567	23
1.36933	21
1.37300	20
1.37667	20
1.38033	20
1.38400	18
1.38767	19
1.39133	21
1.39500	22
1.39867	21
1.40233	21
1.40600	21
1.40967	22
1.41333	22
1.41700	23
1.42067	24
1.42433	27
1.42800	25
1.43167	24
1.43533	24
1.43900	24
1.44267	25
1.44633	24
1.45000	23
1.45367	23
1.45733	22
1.46100	21
1.46467	22
1.46833	23
1.47200	22
1.47567	19
1.47933	17
1.48300	17
1.48667	17
1.49033	17
1.49400	19
1.49767	20
1.50133	22
1.50500	23
1.50867	23
1.51233	23
1.51600	23
1.51967	22
1.52333	22
1.52700	21
1.53067	19
1.53433	19
1.53800	18
1.54167	19
1.54533	18
1.54900	19
1.55267	20
1.55633	18
1.56000	18
1.56367	21
1.56733	23
1.57100	25
1.57467	24
1.57833	25
1.58200	26
1.58567	26
1.58933	28
1.59300	27
1.59667	26
1.60033	25
1.60400	25
1.60767	26
1.61133	26
1.61500	24
1.61867	25
1.62233	28
1.62600	32
1.62967	34
1.63333	33
1.63700	31
1.64067	31
1.64433	31
1.64800	32
1.65167	33
1.65533	35
1.65900	37
1.66267	37
1.66633	38
1.67000	41
1.67367	41
1.67733	39
1.68100	39
1.68467	40
1.68833	40
1.69200	41
1.69567	40
1.69933	38
1.70300	37
1.70667	39
1.71033	41
1.71400	41
1.71767	41
1.72133	41
1.72500	40
1.72867	40
1.73233	41
1.73600	43
1.73967	44
1.74333	46
1.74700	48
1.75067	50
1.75433	52
1.75800	55
1.76167	55
1.76533	54
1.76900	53
1.77267	52
1.77633	49
1.78000	46
1.78367	45
1.78733	46
1.79100	49
1.79467	50
1.79833	52
1.80200	54
1.80567	57
1.80933	58
1.81300	57
1.81667	57
1.82033	56
1.82400	57
1.82767	58
1.83133	57
1.83500	56
1.83867	57
1.84233	58
1.84600	59
1.84967	61
1.85333	62
1.85700	63
1.86067	64
1.86433	64
1.86800	63
1.87167	63
1.87533	65
1.87900	67
1.88267	70
1.88633	72
1.89000	73
1.89367	73
1.89733	72
1.90100	71
1.90467	71
1.90833	71
1.91200	72
1.91567	72
1.91933	73
1.92300	74
1.92667	75
1.93033	75
1.93400	76
1.93767	77
1.94133	79
1.94500	82
1.94867	84
1.95233	84
1.95600	84
1.95967	85
1.96333	86
1.96700	89
1.97067	90
1.97433	90
1.97800	89
1.98167	89
1.98533	87
1.98900	87
1.99267	88
1.99633	90
2.00000	93
2.00367	95
2.00733	95
2.01100	94
2.01467	94
2.01833	96
2.02200	100
2.02567	102
2.02933	105
2.03300	108
2.03667	111
2.04033	113
2.04400	115
2.04767	115
2.05133	113
2.05500	113
2.05867	116
2.06233	119
2.06600	120
2.06967	120
2.07333	118
2.07700	118
2.08067	118
2.08433	120
2.08800	122
2.09167	123
2.09533	126
2.09900	128
2.10267	132
2.10633	133
2.11000	133
2.11367	133
2.11733	133
2.12100	135
2.12467	136
2.12833	140
2.13200	142
2.13567	143
2.13933	141
2.14300	142
2.14667	143
2.15033	146
2.15400	147
2.15767	147
2.16133	151
2.16500	155
2.16867	157
2.17233	156
2.17600	156
2.17967	159
2.18333	161
2.18700	163
2.19067	165
2.19433	166
2.19800	166
2.20167	168
2.20533	168
2.20900	168
2.21267	169
2.21633	170
2.22000	171
2.22367	172
2.22733	174
2.23100	178
2.23467	180
2.23833	181
2.24200	182
2.24567	182
2.24933	182
2.25300	182
2.25667	185
2.26033	188
2.26400	189
2.26767	187
2.27133	186
2.27500	186
2.27867	188
2.28233	192
2.28600	194
2.28967	193
2.29333	194
2.29700	195
2.30067	196
2.30433	197
2.30800	199
2.31167	201
2.31533	203
2.31900	205
2.32267	209
2.32633	210
2.33000	210
2.33367	211
2.33733	211
2.34100	213
2.34467	216
2.34833	218
2.35200	218
2.35567	220
2.35933	222
2.36300	222
2.36667	223
2.37033	223
2.37400	224
2.37767	228
2.38133	229
2.38500	229
2.38867	227
2.39233	226
2.39600	225
2.39967	227
2.40333	232
2.40700	235
2.41067	236
2.41433	237
2.41800	240
2.42167	243
2.42533	245
2.42900	246
2.43267	246
2.43633	244
2.44000	246
2.44367	295
2.44733	424
2.45100	563
2.45467	674
2.45833	733
2.46200	733
2.46567	704
2.46933	672
2.47300	651
2.47667	637
2.48033	618
2.48400	586
2.48767	544
2.49133	499
2.49500	461
2.49867	431
2.50233	411
2.50600	401
2.50967	400
2.51333	410
2.51700	426
2.52067	443
2.52433	456
2.52800	464
2.53167	461
2.53533	446
2.53900	423
2.54267	395
2.54633	368
2.55000	343
2.55367	322
2.55733	306
2.56100	292
2.56467	281
2.56833	273
2.57200	266
2.57567	261
2.57933	260
2.58300	261
2.58667	263
2.59033	266
2.59400	269
2.59767	272
2.60133	273
2.60500	275
2.60867	272
2.61233	267
2.61600	260
2.61967	252
2.62333	245
2.62700	237
2.63067	226
2.63433	215
2.63800	205
2.64167	197
2.64533	187
2.64900	175
2.65267	167
2.65633	159
2.66000	150
2.66367	141
2.66733	134
2.67100	129
2.67467	125
2.67833	121
2.68200	119
2.68567	118
2.68933	118
2.69300	118
2.69667	119
2.70033	119
2.70400	118
2.70767	121
2.71133	125
2.71500	128
2.71867	132
2.72233	133
2.72600	134
2.72967	139
2.73333	144
2.73700	147
2.74067	149
2.74433	152
2.74800	155
2.75167	157
2.75533	158
2.75900	160
2.76267	160
2.76633	163
2.77000	167
2.77367	171
2.77733	175
2.78100	179
2.78467	182
2.78833	183
2.79200	185
2.79567	187
2.79933	188
2.80300	192
2.80667	196
2.81033	202
2.81400	210
2.81767	222
2.82133	243
2.82500	287
2.82867	388
2.83233	593
2.83600	966
2.83967	1569
2.84333	2454
2.84700	3647
2.85067	5125
2.85433	6818
2.85800	8627
2.86167	10423
2.86533	12058
2.86900	13409
2.87267	14383
2.87633	14932
2.88000	15060
2.88367	14806
2.88733	14237
2.89100	13442
2.89467	12500
2.89833	11476
2.90200	10430
2.90567	9406
2.90933	8431
2.91300	7515
2.91667	6669
2.92033	5899
2.92400	5205
2.92767	4584
2.93133	4032
2.93500	3542
2.93867	3109
2.94233	2729
2.94600	2395
2.94967	2103
2.95333	1848
2.95700	1627
2.96067	1434
2.96433	1267
2.96800	1123
2.97167	996
2.97533	885
2.97900	787
2.98267	702
2.98633	630
2.99000	570
2.99367	518
2.99733	471
3.00100	432
3.00467	398
3.00833	368
3.01200	340
3.01567	319
3.01933	301
3.02300	287
3.02667	275
3.03033	261
3.03400	250
3.03767	240
3.04133	232
3.04500	225
3.04867	218
3.05233	214
3.05600	211
3.05967	209
3.06333	208
3.06700	207
3.07067	205
3.07433	203
3.07800	199
3.08167	197
3.08533	194
3.08900	191
3.09267	188
3.09633	186
3.10000	186
3.10367	188
3.10733	188
3.11100	188
3.11467	190
3.11833	190
3.12200	189
3.12567	190
3.12933	189
3.13300	188
3.13667	187
3.14033	188
3.14400	190
3.14767	193
3.15133	193
3.15500	191
3.15867	189
3.16233	190
3.16600	191
3.16967	190
3.17333	190
3.17700	191
3.18067	193
3.18433	194
3.18800	195
3.19167	198
3.19533	200
3.19900	201
3.20267	203
3.20633	203
3.21000	202
3.21367	202
3.21733	206
3.22100	210
3.22467	209
3.22833	209
3.23200	209
3.23567	212
3.23933	214
3.24300	215
3.24667	214
3.25033	210
3.25400	201
3.25767	180
3.26133	162
3.26500	162
3.26867	179
3.27233	209
3.27600	245
3.27967	286
3.28333	331
3.28700	377
3.29067	423
3.29433	469
3.29800	512
3.30167	552
3.30533	586
3.30900	617
3.31267	645
3.31633	668
3.32000	690
3.32367	710
3.32733	726
3.33100	740
3.33467	752
3.33833	764
3.34200	779
3.34567	790
3.34933	799
3.35300	809
3.35667	820
3.36033	828
3.36400	834
3.36767	841
3.37133	848
3.37500	855
3.37867	864
3.38233	871
3.38600	876
3.38967	882
3.39333	889
3.39700	894
3.40067	896
3.40433	897
3.40800	898
3.41167	901
3.41533	902
3.41900	901
3.42267	898
3.42633	896
3.43000	897
3.43367	898
3.43733	896
3.44100	893
3.44467	888
3.44833	884
3.45200	882
3.45567	878
3.45933	875
3.46300	871
3.46667	866
3.47033	859
3.47400	855
3.47767	851
3.48133	848
3.48500	846
3.48867	844
3.49233	839
3.49600	836
3.49967	831
3.50333	828
3.50700	825
3.51067	822
3.51433	820
3.51800	817
3.52167	815
3.52533	812
3.52900	807
3.53267	804
3.53633	803
3.54000	803
3.54367	805
3.54733	807
3.55100	804
3.55467	802
3.55833	802
3.56200	801
3.56567	801
3.56933	800
3.57300	801
3.57667	800
3.58033	797
3.58400	797
3.58767	799
3.59133	800
3.59500	803
3.59867	807
3.60233	807
3.60600	806
3.60967	803
3.61333	802
3.61700	800
3.62067	800
3.62433	799
3.62800	797
3.63167	794
3.63533	791
3.63900	789
3.64267	787
3.64633	784
3.65000	782
3.65367	779
3.65733	779
3.66100	778
3.66467	776
3.66833	775
3.67200	775
3.67567	776
3.67933	776
3.68300	775
3.68667	772
3.69033	770
3.69400	767
3.69767	765
3.70133	761
3.70500	757
3.70867	754
3.71233	755
3.71600	754
3.71967	751
3.72333	748
3.72700	745
3.73067	744
3.73433	744
3.73800	742
3.74167	739
3.74533	738
3.74900	737
3.75267	735
3.75633	733
3.76000	732
3.76367	731
3.76733	728
3.77100	726
3.77467	725
3.77833	723
3.78200	721
3.78567	720
3.78933	719
3.79300	715
3.79667	712
3.80033	712
3.80400	710
3.80767	705
3.81133	701
3.81500	699
3.81867	696
3.82233	694
3.82600	692
3.82967	688
3.83333	682
3.83700	678
3.84067	678
3.84433	678
3.84800	677
3.85167	675
3.85533	674
3.85900	675
3.86267	675
3.86633	673
3.87000	669
3.87367	666
3.87733	664
3.88100	661
3.88467	658
3.88833	656
3.89200	654
3.89567	652
3.89933	652
3.90300	651
3.90667	650
3.91033	647
3.91400	643
3.91767	642
3.92133	639
3.92500	639
3.92867	639
3.93233	636
3.93600	634
3.93967	630
3.94333	627
3.94700	622
3.95067	618
3.95433	616
3.95800	615
3.96167	615
3.96533	616
3.96900	616
3.97267	615
3.97633	614
3.98000	614
3.98367	614
3.98733	611
3.99100	607
3.99467	604
3.99833	599

[Status Trace (Column Oven Temperature)]
Interval(msec)	1000
# of Points	240
Start Time(min)	0.011
End Time(min)	3.994
Intensity Units	
Intensity Multiplier	1
R.Time (min)	Intensity
0.01097	35.03
0.02763	35.02
0.04430	35.02
0.06097	35.02
0.07763	35.02
0.09430	35.02
0.11097	35.03
0.12763	35.04
0.14430	35.04
0.16097	35.03
0.17763	35.04
0.19430	35.02
0.21097	35.02
0.22763	35.03
0.24430	35.02
0.26097	35.02
0.27763	35.01
0.29430	35.00
0.31097	34.99
0.32763	34.99
0.34430	34.99
0.36097	34.99
0.37763	34.98
0.39430	34.98
0.41097	34.98
0.42763	34.98
0.44430	34.98
0.46097	34.99
0.47763	35.01
0.49430	35.02
0.51097	35.02
0.52763	35.02
0.54430	35.03
0.56097	35.03
0.57763	35.03
0.59430	35.04
0.61097	35.03
0.62763	35.02
0.64430	35.00
0.66097	35.01
0.67763	35.00
0.69430	35.00
0.71097	35.02
0.72763	35.02
0.74430	35.02
0.76097	35.02
0.77763	35.02
0.79430	35.01
0.81097	35.00
0.82763	35.00
0.84430	35.00
0.86097	35.00
0.87763	35.01
0.89430	35.02
0.91097	35.02
0.92763	35.02
0.94430	35.01
0.96097	35.01
0.97763	35.00
0.99430	35.00
1.01097	34.99
1.02763	34.99
1.04430	34.99
1.06097	35.01
1.07763	35.01
1.09430	35.02
1.11097	35.02
1.12763	35.02
1.14430	35.02
1.16097	35.01
1.17763	35.00
1.19430	35.00
1.21097	35.00
1.22763	35.01
1.24430	35.02
1.26097	35.02
1.27763	35.03
1.29430	35.03
1.31097	35.03
1.32763	35.02
1.34430	35.02
1.36097	35.02
1.37763	35.02
1.39430	35.01
1.41097	35.00
1.42763	34.98
1.44430	34.97
1.46097	34.95
1.47763	34.94
1.49430	34.96
1.51097	34.98
1.52763	34.98
1.54430	34.99
1.56097	34.99
1.57763	34.99
1.59430	35.02
1.61097	35.08
1.62763	35.22
1.64430	35.42
1.66097	35.69
1.67763	36.04
1.69430	36.39
1.71097	36.74
1.72763	37.10
1.74430	37.43
1.76097	37.73
1.77763	38.04
1.79430	38.37
1.81097	38.70
1.82763	39.03
1.84430	39.36
1.86097	39.70
1.87763	40.03
1.89430	40.37
1.91097	40.70
1.92763	41.02
1.94430	41.35
1.96097	41.67
1.97763	41.99
1.99430	42.32
2.01097	42.63
2.02763	42.98
2.04430	43.30
2.06097	43.62
2.07763	43.95
2.09430	44.28
2.11097	44.60
2.12763	44.94
2.14430	45.27
2.16097	45.59
2.17763	45.93
2.19430	46.26
2.21097	46.58
2.22763	46.92
2.24430	47.24
2.26097	47.58
2.27763	47.92
2.29430	48.23
2.31097	48.57
2.32763	48.89
2.34430	49.19
2.36097	49.49
2.37763	49.68
2.39430	49.75
2.41097	49.72
2.42763	49.75
2.44430	49.75
2.46097	49.75
2.47763	49.78
2.49430	49.78
2.51097	49.79
2.52763	49.79
2.54430	49.81
2.56097	49.81
2.57763	49.81
2.59430	49.81
2.61097	49.82
2.62763	49.83
2.64430	49.83
2.66097	49.84
2.67763	49.84
2.69430	49.86
2.71097	49.85
2.72763	49.84
2.74430	49.87
2.76097	49.90
2.77763	49.91
2.79430	49.90
2.81097	49.89
2.82763	49.89
2.84430	49.90
2.86097	49.90
2.87763	49.91
2.89430	49.91
2.91097	49.92
2.92763	49.94
2.94430	49.97
2.96097	49.99
2.97763	50.01
2.99430	50.01
3.01097	50.01
3.02763	50.01
3.04430	50.02
3.06097	50.03
3.07763	50.04
3.09430	50.05
3.11097	50.06
3.12763	50.07
3.14430	50.07
3.16097	50.08
3.17763	50.09
3.19430	50.10
3.21097	50.11
3.22763	50.11
3.24430	50.11
3.26097	50.09
3.27763	50.08
3.29430	50.06
3.31097	50.05
3.32763	50.05
3.34430	50.05
3.36097	50.05
3.37763	50.04
3.39430	50.05
3.41097	50.05
3.42763	50.04
3.44430	50.03
3.46097	50.04
3.47763	50.04
3.49430	50.05
3.51097	50.05
3.52763	50.04
3.54430	50.04
3.56097	50.04
3.57763	50.04
3.59430	50.04
3.61097	50.05
3.62763	50.05
3.64430	50.05
3.66097	50.06
3.67763	50.05
3.69430	50.05
3.71097	50.05
3.72763	50.06
3.74430	50.07
3.76097	50.08
3.77763	50.08
3.79430	50.08
3.81097	50.08
3.82763	50.08
3.84430	50.08
3.86097	50.08
3.87763	50.08
3.89430	50.06
3.91097	50.05
3.92763	50.05
3.94430	50.05
3.96097	50.05
3.97763	50.05
3.99430	50.05

[Status Trace (Injection Unit Temperature)]
Interval(msec)	1000
# of Points	240
Start Time(min)	0.011
End Time(min)	3.994
Intensity Units	
Intensity Multiplier	1
R.Time (min)	Intensity
0.01097	99.98
0.02763	99.98
0.04430	99.97
0.06097	99.98
0.07763	99.98
0.09430	99.98
0.11097	99.98
0.12763	99.98
0.14430	99.98
0.16097	99.98
0.17763	99.98
0.19430	99.98
0.21097	99.98
0.22763	99.98
0.24430	99.98
0.26097	99.98
0.27763	99.98
0.29430	99.99
0.31097	99.98
0.32763	99.98
0.34430	99.98
0.36097	99.99
0.37763	99.98
0.39430	99.99
0.41097	99.98
0.42763	99.98
0.44430	99.98
0.46097	99.98
0.47763	99.99
0.49430	99.98
0.51097	99.98
0.52763	99.98
0.54430	99.98
0.56097	99.98
0.57763	99.98
0.59430	99.98
0.61097	99.98
0.62763	99.98
0.64430	99.98
0.66097	99.98
0.67763	99.98
0.69430	99.98
0.71097	99.98
0.72763	99.99
0.74430	99.98
0.76097	99.98
0.77763	99.98
0.79430	99.98
0.81097	99.99
0.82763	99.98
0.84430	99.98
0.86097	99.98
0.87763	99.98
0.89430	99.98
0.91097	99.97
0.92763	99.99
0.94430	99.98
0.96097	99.98
0.97763	99.99
0.99430	99.98
1.01097	99.98
1.02763	99.98
1.04430	99.98
1.06097	99.98
1.07763	99.98
1.09430	99.98
1.11097	99.98
1.12763	99.98
1.14430	99.98
1.16097	99.98
1.17763	99.99
1.19430	99.98
1.21097	99.98
1.22763	99.98
1.24430	99.98
1.26097	99.98
1.27763	99.98
1.29430	99.98
1.31097	99.98
1.32763	99.98
1.34430	99.98
1.36097	99.99
1.37763	99.98
1.39430	99.98
1.41097	99.98
1.42763	99.99
1.44430	99.99
1.46097	99.98
1.47763	99.98
1.49430	99.99
1.51097	99.99
1.52763	99.98
1.54430	99.98
1.56097	99.99
1.57763	99.98
1.59430	99.98
1.61097	99.98
1.62763	99.98
1.64430	99.98
1.66097	99.98
1.67763	99.98
1.69430	99.98
1.71097	99.98
1.72763	99.98
1.74430	99.98
1.76097	99.99
1.77763	99.98
1.79430	99.98
1.81097	99.98
1.82763	99.98
1.84430	99.98
1.86097	99.98
1.87763	99.98
1.89430	99.98
1.91097	99.98
1.92763	99.97
1.94430	99.98
1.96097	99.97
1.97763	99.98
1.99430	99.98
2.01097	99.98
2.02763	99.98
2.04430	99.98
2.06097	99.96
2.07763	99.97
2.09430	99.98
2.11097	99.98
2.12763	99.97
2.14430	99.97
2.16097	99.97
2.17763	99.97
2.19430	99.97
2.21097	99.97
2.22763	99.97
2.24430	99.97
2.26097	99.97
2.27763	99.97
2.29430	99.97
2.31097	99.97
2.32763	99.97
2.34430	99.98
2.36097	99.98
2.37763	99.97
2.39430	99.97
2.41097	99.98
2.42763	99.97
2.44430	99.97
2.46097	99.97
2.47763	99.97
2.49430	99.97
2.51097	99.98
2.52763	99.97
2.54430	99.98
2.56097	99.98
2.57763	99.98
2.59430	99.98
2.61097	99.98
2.62763	99.98
2.64430	99.98
2.66097	99.98
2.67763	99.98
2.69430	99.98
2.71097	99.99
2.72763	99.98
2.74430	99.99
2.76097	99.99
2.77763	99.99
2.79430	99.99
2.81097	99.99
2.82763	100.00
2.84430	100.00
2.86097	100.00
2.87763	99.99
2.89430	100.00
2.91097	100.00
2.92763	100.01
2.94430	100.00
2.96097	100.00
2.97763	100.01
2.99430	100.01
3.01097	100.01
3.02763	100.01
3.04430	100.01
3.06097	100.01
3.07763	100.01
3.09430	100.01
3.11097	100.01
3.12763	100.02
3.14430	100.02
3.16097	100.02
3.17763	100.02
3.19430	100.02
3.21097	100.02
3.22763	100.02
3.24430	100.02
3.26097	100.02
3.27763	100.03
3.29430	100.03
3.31097	100.03
3.32763	100.03
3.34430	100.03
3.36097	100.03
3.37763	100.03
3.39430	100.03
3.41097	100.03
3.42763	100.04
3.44430	100.03
3.46097	100.04
3.47763	100.04
3.49430	100.04
3.51097	100.04
3.52763	100.04
3.54430	100.04
3.56097	100.04
3.57763	100.04
3.59430	100.04
3.61097	100.05
3.62763	100.05
3.64430	100.05
3.66097	100.04
3.67763	100.05
3.69430	100.05
3.71097	100.05
3.72763	100.05
3.74430	100.05
3.76097	100.05
3.77763	100.05
3.79430	100.05
3.81097	100.05
3.82763	100.05
3.84430	100.05
3.86097	100.05
3.87763	100.05
3.89430	100.05
3.91097	100.05
3.92763	100.05
3.94430	100.05
3.96097	100.05
3.97763	100.05
3.99430	100.05

[Status Trace (Carrier Gas Pressure)]
Interval(msec)	1000
# of Points	240
Start Time(min)	0.011
End Time(min)	3.994
Intensity Units	
Intensity Multiplier	1
R.Time (min)	Intensity
0.01097	58.00
0.02763	55.00
0.04430	57.50
0.06097	59.62
0.07763	58.97
0.09430	58.01
0.11097	57.99
0.12763	58.01
0.14430	58.01
0.16097	58.00
0.17763	58.00
0.19430	58.00
0.21097	58.00
0.22763	58.00
0.24430	58.00
0.26097	58.00
0.27763	58.00
0.29430	58.00
0.31097	58.00
0.32763	58.00
0.34430	58.00
0.36097	58.00
0.37763	58.00
0.39430	58.00
0.41097	58.00
0.42763	58.00
0.44430	58.00
0.46097	58.00
0.47763	58.00
0.49430	58.00
0.51097	58.00
0.52763	58.00
0.54430	58.00
0.56097	58.00
0.57763	58.00
0.59430	58.00
0.61097	58.00
0.62763	58.00
0.64430	58.00
0.66097	58.00
0.67763	58.00
0.69430	58.00
0.71097	58.00
0.72763	58.00
0.74430	58.00
0.76097	58.00
0.77763	58.00
0.79430	58.00
0.81097	58.00
0.82763	58.00
0.84430	58.00
0.86097	58.00
0.87763	58.00
0.89430	58.00
0.91097	58.00
0.92763	58.00
0.94430	58.00
0.96097	58.00
0.97763	58.00
0.99430	58.00
1.01097	58.00
1.02763	58.00
1.04430	58.00
1.06097	58.00
1.07763	58.00
1.09430	58.00
1.11097	58.00
1.12763	58.00
1.14430	58.00
1.16097	58.00
1.17763	58.00
1.19430	58.00
1.21097	58.00
1.22763	58.00
1.24430	58.00
1.26097	58.00
1.27763	58.00
1.29430	58.00
1.31097	58.00
1.32763	58.00
1.34430	58.00
1.36097	58.00
1.37763	58.00
1.39430	58.00
1.41097	58.00
1.42763	58.00
1.44430	58.00
1.46097	58.00
1.47763	58.00
1.49430	58.00
1.51097	58.00
1.52763	58.00
1.54430	58.00
1.56097	58.00
1.57763	58.00
1.59430	58.00
1.61097	58.00
1.62763	58.00
1.64430	58.01
1.66097	58.01
1.67763	58.01
1.69430	58.00
1.71097	58.00
1.72763	58.00
1.74430	58.00
1.76097	58.00
1.77763	58.00
1.79430	58.00
1.81097	58.00
1.82763	58.00
1.84430	58.00
1.86097	58.00
1.87763	58.00
1.89430	58.00
1.91097	58.00
1.92763	58.00
1.94430	58.00
1.96097	58.00
1.97763	58.00
1.99430	58.00
2.01097	58.00
2.02763	58.00
2.04430	58.00
2.06097	58.00
2.07763	58.00
2.09430	58.00
2.11097	58.00
2.12763	58.00
2.14430	58.00
2.16097	58.00
2.17763	58.00
2.19430	58.00
2.21097	58.00
2.22763	58.00
2.24430	58.00
2.26097	58.00
2.27763	58.00
2.29430	58.00
2.31097	58.00
2.32763	58.00
2.34430	58.00
2.36097	58.00
2.37763	58.00
2.39430	57.99
2.41097	57.99
2.42763	58.00
2.44430	58.00
2.46097	58.00
2.47763	58.00
2.49430	58.00
2.51097	57.99
2.52763	57.99
2.54430	58.00
2.56097	58.00
2.57763	58.00
2.59430	58.00
2.61097	58.00
2.62763	58.00
2.64430	58.00
2.66097	58.00
2.67763	58.00
2.69430	58.00
2.71097	58.00
2.72763	58.00
2.74430	58.00
2.76097	58.00
2.77763	58.00
2.79430	58.00
2.81097	58.00
2.82763	58.00
2.84430	58.00
2.86097	58.00
2.87763	58.00
2.89430	58.00
2.91097	58.00
2.92763	58.00
2.94430	58.00
2.96097	58.00
2.97763	58.00
2.99430	58.00
3.01097	58.00
3.02763	58.00
3.04430	58.00
3.06097	58.00
3.07763	58.00
3.09430	58.00
3.11097	58.00
3.12763	58.00
3.14430	58.00
3.16097	58.00
3.17763	58.00
3.19430	58.00
3.21097	58.00
3.22763	58.00
3.24430	58.00
3.26097	58.00
3.27763	58.00
3.29430	58.00
3.31097	58.00
3.32763	58.00
3.34430	58.00
3.36097	58.00
3.37763	58.00
3.39430	58.00
3.41097	58.00
3.42763	58.00
3.44430	58.00
3.46097	58.00
3.47763	58.00
3.49430	58.00
3.51097	58.00
3.52763	58.00
3.54430	58.00
3.56097	58.00
3.57763	58.00
3.59430	58.00
3.61097	58.00
3.62763	58.00
3.64430	58.00
3.66097	58.00
3.67763	58.00
3.69430	58.00
3.71097	58.00
3.72763	58.00
3.74430	58.00
3.76097	58.00
3.77763	58.00
3.79430	58.00
3.81097	58.00
3.82763	58.00
3.84430	58.00
3.86097	58.00
3.87763	58.00
3.89430	58.00
3.91097	58.00
3.92763	58.00
3.94430	58.00
3.96097	58.00
3.97763	58.00
3.99430	58.00

[Status Trace (Carrier Gas Flow)]
Interval(msec)	1000
# of Points	240
Start Time(min)	0.011
End Time(min)	3.994
Intensity Units	
Intensity Multiplier	1
R.Time (min)	Intensity
0.01097	34.52
0.02763	34.54
0.04430	34.55
0.06097	34.54
0.07763	34.50
0.09430	34.52
0.11097	34.52
0.12763	34.52
0.14430	34.52
0.16097	34.52
0.17763	34.52
0.19430	34.52
0.21097	34.52
0.22763	34.52
0.24430	34.52
0.26097	34.52
0.27763	34.52
0.29430	34.52
0.31097	34.52
0.32763	34.52
0.34430	34.52
0.36097	34.52
0.37763	34.52
0.39430	34.52
0.41097	34.52
0.42763	34.52
0.44430	34.52
0.46097	34.52
0.47763	34.52
0.49430	34.52
0.51097	34.52
0.52763	34.52
0.54430	34.52
0.56097	34.52
0.57763	34.52
0.59430	34.52
0.61097	34.52
0.62763	34.52
0.64430	34.52
0.66097	34.52
0.67763	34.52
0.69430	34.53
0.71097	34.52
0.72763	34.52
0.74430	34.52
0.76097	34.52
0.77763	34.52
0.79430	34.52
0.81097	34.52
0.82763	34.52
0.84430	34.52
0.86097	34.52
0.87763	34.52
0.89430	34.52
0.91097	34.52
0.92763	34.52
0.94430	34.52
0.96097	34.52
0.97763	34.52
0.99430	34.52
1.01097	34.52
1.02763	34.52
1.04430	34.52
1.06097	34.52
1.07763	34.52
1.09430	34.52
1.11097	34.52
1.12763	34.52
1.14430	34.52
1.16097	34.51
1.17763	34.52
1.19430	34.52
1.21097	34.52
1.22763	34.52
1.24430	34.52
1.26097	34.52
1.27763	34.52
1.29430	34.52
1.31097	34.52
1.32763	34.52
1.34430	34.52
1.36097	34.52
1.37763	34.52
1.39430	34.52
1.41097	34.52
1.42763	34.52
1.44430	34.52
1.46097	34.52
1.47763	34.52
1.49430	34.52
1.51097	34.52
1.52763	34.51
1.54430	34.52
1.56097	34.52
1.57763	34.52
1.59430	34.52
1.61097	34.52
1.62763	34.52
1.64430	34.52
1.66097	34.52
1.67763	34.52
1.69430	34.52
1.71097	34.52
1.72763	34.52
1.74430	34.52
1.76097	34.52
1.77763	34.52
1.79430	34.52
1.81097	34.52
1.82763	34.52
1.84430	34.51
1.86097	34.52
1.87763	34.52
1.89430	34.52
1.91097	34.51
1.92763	34.51
1.94430	34.52
1.96097	34.52
1.97763	34.52
1.99430	34.52
2.01097	34.52
2.02763	34.52
2.04430	34.52
2.06097	34.52
2.07763	34.52
2.09430	34.52
2.11097	34.52
2.12763	34.52
2.14430	34.52
2.16097	34.52
2.17763	34.52
2.19430	34.52
2.21097	34.52
2.22763	34.52
2.24430	34.52
2.26097	34.52
2.27763	34.53
2.29430	34.51
2.31097	34.52
2.32763	34.52
2.34430	34.51
2.36097	34.52
2.37763	34.52
2.39430	34.52
2.41097	34.52
2.42763	34.51
2.44430	34.52
2.46097	34.52
2.47763	34.51
2.49430	34.52
2.51097	34.52
2.52763	34.53
2.54430	34.52
2.56097	34.52
2.57763	34.52
2.59430	34.52
2.61097	34.52
2.62763	34.52
2.64430	34.52
2.66097	34.52
2.67763	34.52
2.69430	34.51
2.71097	34.52
2.72763	34.52
2.74430	34.52
2.76097	34.52
2.77763	34.52
2.79430	34.52
2.81097	34.52
2.82763	34.52
2.84430	34.52
2.86097	34.52
2.87763	34.52
2.89430	34.52
2.91097	34.52
2.92763	34.52
2.94430	34.52
2.96097	34.52
2.97763	34.52
2.99430	34.52
3.01097	34.52
3.02763	34.52
3.04430	34.52
3.06097	34.52
3.07763	34.52
3.09430	34.52
3.11097	34.52
3.12763	34.52
3.14430	34.52
3.16097	34.52
3.17763	34.52
3.19430	34.52
3.21097	34.52
3.22763	34.52
3.24430	34.52
3.26097	34.52
3.27763	34.52
3.29430	34.52
3.31097	34.51
3.32763	34.52
3.34430	34.52
3.36097	34.52
3.37763	34.52
3.39430	34.52
3.41097	34.52
3.42763	34.52
3.44430	34.52
3.46097	34.52
3.47763	34.52
3.49430	34.52
3.51097	34.52
3.52763	34.52
3.54430	34.52
3.56097	34.52
3.57763	34.52
3.59430	34.52
3.61097	34.51
3.62763	34.52
3.64430	34.52
3.66097	34.52
3.67763	34.52
3.69430	34.52
3.71097	34.52
3.72763	34.52
3.74430	34.51
3.76097	34.52
3.77763	34.52
3.79430	34.52
3.81097	34.51
3.82763	34.51
3.84430	34.52
3.86097	34.52
3.87763	34.52
3.89430	34.52
3.91097	34.52
3.92763	34.52
3.94430	34.51
3.96097	34.52
3.97763	34.52
3.99430	34.53

[Status Trace (Column Flow)]
Interval(msec)	1000
# of Points	240
Start Time(min)	0.011
End Time(min)	3.994
Intensity Units	
Intensity Multiplier	1
R.Time (min)	Intensity
0.01097	5.53
0.02763	5.18
0.04430	5.47
0.06097	5.72
0.07763	5.64
0.09430	5.53
0.11097	5.53
0.12763	5.53
0.14430	5.53
0.16097	5.53
0.17763	5.53
0.19430	5.53
0.21097	5.53
0.22763	5.53
0.24430	5.53
0.26097	5.53
0.27763	5.53
0.29430	5.53
0.31097	5.53
0.32763	5.53
0.34430	5.53
0.36097	5.53
0.37763	5.53
0.39430	5.53
0.41097	5.53
0.42763	5.53
0.44430	5.53
0.46097	5.53
0.47763	5.53
0.49430	5.53
0.51097	5.53
0.52763	5.53
0.54430	5.53
0.56097	5.53
0.57763	5.53
0.59430	5.53
0.61097	5.53
0.62763	5.53
0.64430	5.53
0.66097	5.53
0.67763	5.53
0.69430	5.53
0.71097	5.53
0.72763	5.53
0.74430	5.53
0.76097	5.53
0.77763	5.53
0.79430	5.53
0.81097	5.53
0.82763	5.53
0.84430	5.53
0.86097	5.53
0.87763	5.53
0.89430	5.53
0.91097	5.53
0.92763	5.53
0.94430	5.53
0.96097	5.53
0.97763	5.53
0.99430	5.53
1.01097	5.53
1.02763	5.53
1.04430	5.53
1.06097	5.53
1.07763	5.53
1.09430	5.53
1.11097	5.53
1.12763	5.53
1.14430	5.53
1.16097	5.53
1.17763	5.53
1.19430	5.53
1.21097	5.53
1.22763	5.53
1.24430	5.53
1.26097	5.53
1.27763	5.53
1.29430	5.53
1.31097	5.53
1.32763	5.53
1.34430	5.53
1.36097	5.53
1.37763	5.53
1.39430	5.53
1.41097	5.53
1.42763	5.53
1.44430	5.53
1.46097	5.53
1.47763	5.53
1.49430	5.53
1.51097	5.53
1.52763	5.53
1.54430	5.53
1.56097	5.53
1.57763	5.53
1.59430	5.53
1.61097	5.53
1.62763	5.52
1.64430	5.52
1.66097	5.51
1.67763	5.50
1.69430	5.49
1.71097	5.48
1.72763	5.46
1.74430	5.45
1.76097	5.44
1.77763	5.44
1.79430	5.43
1.81097	5.42
1.82763	5.40
1.84430	5.39
1.86097	5.38
1.87763	5.37
1.89430	5.36
1.91097	5.35
1.92763	5.34
1.94430	5.33
1.96097	5.33
1.97763	5.32
1.99430	5.31
2.01097	5.30
2.02763	5.29
2.04430	5.28
2.06097	5.27
2.07763	5.26
2.09430	5.25
2.11097	5.24
2.12763	5.23
2.14430	5.22
2.16097	5.21
2.17763	5.20
2.19430	5.19
2.21097	5.18
2.22763	5.17
2.24430	5.16
2.26097	5.15
2.27763	5.14
2.29430	5.14
2.31097	5.13
2.32763	5.12
2.34430	5.11
2.36097	5.10
2.37763	5.09
2.39430	5.09
2.41097	5.09
2.42763	5.09
2.44430	5.09
2.46097	5.09
2.47763	5.09
2.49430	5.09
2.51097	5.09
2.52763	5.09
2.54430	5.09
2.56097	5.09
2.57763	5.09
2.59430	5.09
2.61097	5.09
2.62763	5.09
2.64430	5.09
2.66097	5.09
2.67763	5.09
2.69430	5.09
2.71097	5.09
2.72763	5.09
2.74430	5.09
2.76097	5.09
2.77763	5.09
2.79430	5.09
2.81097	5.09
2.82763	5.09
2.84430	5.09
2.86097	5.09
2.87763	5.09
2.89430	5.09
2.91097	5.09
2.92763	5.09
2.94430	5.09
2.96097	5.09
2.97763	5.09
2.99430	5.09
3.01097	5.09
3.02763	5.09
3.04430	5.09
3.06097	5.09
3.07763	5.08
3.09430	5.08
3.11097	5.08
3.12763	5.08
3.14430	5.08
3.16097	5.08
3.17763	5.08
3.19430	5.08
3.21097	5.08
3.22763	5.08
3.24430	5.08
3.26097	5.08
3.27763	5.08
3.29430	5.08
3.31097	5.08
3.32763	5.08
3.34430	5.08
3.36097	5.08
3.37763	5.09
3.39430	5.09
3.41097	5.09
3.42763	5.09
3.44430	5.09
3.46097	5.09
3.47763	5.09
3.49430	5.08
3.51097	5.08
3.52763	5.08
3.54430	5.09
3.56097	5.08
3.57763	5.08
3.59430	5.08
3.61097	5.08
3.62763	5.08
3.64430	5.08
3.66097	5.08
3.67763	5.08
3.69430	5.08
3.71097	5.08
3.72763	5.08
3.74430	5.08
3.76097	5.08
3.77763	5.08
3.79430	5.08
3.81097	5.08
3.82763	5.08
3.84430	5.08
3.86097	5.08
3.87763	5.08
3.89430	5.08
3.91097	5.08
3.92763	5.08
3.94430	5.08
3.96097	5.08
3.97763	5.08
3.99430	5.08

[Status Trace (Linear Velocity)]
Interval(msec)	1000
# of Points	240
Start Time(min)	0.011
End Time(min)	3.994
Intensity Units	
Intensity Multiplier	1
R.Time (min)	Intensity
0.01097	39.02
0.02763	37.05
0.04430	38.69
0.06097	40.07
0.07763	39.66
0.09430	39.02
0.11097	39.01
0.12763	39.02
0.14430	39.02
0.16097	39.02
0.17763	39.02
0.19430	39.02
0.21097	39.02
0.22763	39.02
0.24430	39.02
0.26097	39.02
0.27763	39.02
0.29430	39.02
0.31097	39.02
0.32763	39.02
0.34430	39.02
0.36097	39.02
0.37763	39.02
0.39430	39.02
0.41097	39.02
0.42763	39.02
0.44430	39.02
0.46097	39.02
0.47763	39.02
0.49430	39.02
0.51097	39.02
0.52763	39.02
0.54430	39.02
0.56097	39.02
0.57763	39.02
0.59430	39.02
0.61097	39.02
0.62763	39.02
0.64430	39.02
0.66097	39.02
0.67763	39.02
0.69430	39.02
0.71097	39.02
0.72763	39.02
0.74430	39.02
0.76097	39.02
0.77763	39.02
0.79430	39.02
0.81097	39.02
0.82763	39.02
0.84430	39.02
0.86097	39.02
0.87763	39.02
0.89430	39.02
0.91097	39.02
0.92763	39.02
0.94430	39.02
0.96097	39.02
0.97763	39.02
0.99430	39.02
1.01097	39.02
1.02763	39.02
1.04430	39.02
1.06097	39.02
1.07763	39.02
1.09430	39.02
1.11097	39.02
1.12763	39.02
1.14430	39.02
1.16097	39.02
1.17763	39.02
1.19430	39.02
1.21097	39.02
1.22763	39.02
1.24430	39.02
1.26097	39.02
1.27763	39.02
1.29430	39.02
1.31097	39.02
1.32763	39.02
1.34430	39.02
1.36097	39.02
1.37763	39.02
1.39430	39.02
1.41097	39.02
1.42763	39.02
1.44430	39.02
1.46097	39.02
1.47763	39.03
1.49430	39.02
1.51097	39.02
1.52763	39.02
1.54430	39.02
1.56097	39.02
1.57763	39.02
1.59430	39.02
1.61097	39.01
1.62763	39.00
1.64430	38.98
1.66097	38.96
1.67763	38.92
1.69430	38.89
1.71097	38.85
1.72763	38.82
1.74430	38.79
1.76097	38.76
1.77763	38.73
1.79430	38.70
1.81097	38.67
1.82763	38.64
1.84430	38.60
1.86097	38.57
1.87763	38.54
1.89430	38.51
1.91097	38.48
1.92763	38.45
1.94430	38.42
1.96097	38.39
1.97763	38.36
1.99430	38.33
2.01097	38.30
2.02763	38.27
2.04430	38.24
2.06097	38.21
2.07763	38.18
2.09430	38.15
2.11097	38.12
2.12763	38.09
2.14430	38.06
2.16097	38.03
2.17763	38.00
2.19430	37.97
2.21097	37.94
2.22763	37.91
2.24430	37.88
2.26097	37.85
2.27763	37.82
2.29430	37.79
2.31097	37.76
2.32763	37.73
2.34430	37.71
2.36097	37.68
2.37763	37.66
2.39430	37.65
2.41097	37.65
2.42763	37.66
2.44430	37.66
2.46097	37.66
2.47763	37.65
2.49430	37.65
2.51097	37.65
2.52763	37.64
2.54430	37.65
2.56097	37.65
2.57763	37.65
2.59430	37.65
2.61097	37.65
2.62763	37.65
2.64430	37.65
2.66097	37.65
2.67763	37.65
2.69430	37.65
2.71097	37.65
2.72763	37.65
2.74430	37.65
2.76097	37.64
2.77763	37.64
2.79430	37.64
2.81097	37.64
2.82763	37.64
2.84430	37.64
2.86097	37.64
2.87763	37.64
2.89430	37.64
2.91097	37.64
2.92763	37.64
2.94430	37.64
2.96097	37.64
2.97763	37.63
2.99430	37.63
3.01097	37.63
3.02763	37.63
3.04430	37.63
3.06097	37.63
3.07763	37.63
3.09430	37.63
3.11097	37.63
3.12763	37.63
3.14430	37.63
3.16097	37.63
3.17763	37.63
3.19430	37.63
3.21097	37.63
3.22763	37.62
3.24430	37.63
3.26097	37.63
3.27763	37.63
3.29430	37.63
3.31097	37.63
3.32763	37.63
3.34430	37.63
3.36097	37.63
3.37763	37.63
3.39430	37.63
3.41097	37.63
3.42763	37.63
3.44430	37.63
3.46097	37.63
3.47763	37.63
3.49430	37.63
3.51097	37.63
3.52763	37.63
3.54430	37.63
3.56097	37.63
3.57763	37.63
3.59430	37.63
3.61097	37.63
3.62763	37.63
3.64430	37.63
3.66097	37.63
3.67763	37.63
3.69430	37.63
3.71097	37.63
3.72763	37.63
3.74430	37.63
3.76097	37.63
3.77763	37.63
3.79430	37.63
3.81097	37.63
3.82763	37.63
3.84430	37.63
3.86097	37.63
3.87763	37.63
3.89430	37.63
3.91097	37.63
3.92763	37.63
3.94430	37.63
3.96097	37.63
3.97763	37.63
3.99430	37.63

