[Header]
Application Name	LabSolutions
Version	5.110
Data File Name	C:\Users\User\Desktop\GC Analyses\Jack\Nachusa Grasslands Sampling\T3 Timepoint July 12th\T3_07122022_018.gcd
Output Date	3/14/2023
Output Time	3:43:31 PM

[File Information]
Type	Data File
Generated	3/13/2023 4:23:39 PM
Generated by	System Administrator
Modified	3/13/2023 4:30:33 PM
Modified by	System Administrator

[Sample Information]
Operator Name	System Administrator
Acquired	3/13/2023 4:26:32 PM
Sample Type	0:Unknown
Level	0
Sample Name	018
Sample ID	018
ISTD Amount1	1
ISTD Amount2	1
ISTD Amount3	1
ISTD Amount4	1
ISTD Amount5	1
ISTD Amount6	1
ISTD Amount7	1
ISTD Amount8	1
ISTD Amount9	1
ISTD Amount10	1
ISTD Amount11	1
ISTD Amount12	1
ISTD Amount13	1
ISTD Amount14	1
ISTD Amount15	1
ISTD Amount16	1
ISTD Amount17	1
ISTD Amount18	1
ISTD Amount19	1
ISTD Amount20	1
ISTD Amount21	1
ISTD Amount22	1
ISTD Amount23	1
ISTD Amount24	1
ISTD Amount25	1
ISTD Amount26	1
ISTD Amount27	1
ISTD Amount28	1
ISTD Amount29	1
ISTD Amount30	1
ISTD Amount31	1
ISTD Amount32	1
Sample Amount	1
Dilution Factor	1
Vial#	17
Injection Volume	1
Injection Count	1
Bar Code	

[Original Files]
Data File	C:\Users\User\Desktop\GC Analyses\Jack\Nachusa Grasslands Sampling\T3 Timepoint July 12th\T3_07122022_018.gcd
Method File	C:\LabSolutions\Data\GHG_4min_2022\ghg3_togas_w_acet_4 min_new_int.gcm
Batch File	C:\LabSolutions\Data\AutoSamplerTesting\T3_07122022.gcb
Report Format File	c:\LabSolutions\System\DEFAULT.lsr

[File Description]


[Configuration]
Instrument Name	C0B7VH3-Instrument1
Instrument #	1
Line #	1
# of Detectors	3
Detector ID	DET#1	DET#2	DET#3
Detector Name	FID	PTCD	ECD
# of Channels	1	1	1

[Peak Table(Ch1)]
# of Peaks	3
Peak#	R.Time	I.Time	F.Time	Area	Height	A/H	Conc.	Mark	ID#	Name	k'	Plate #	Plate Ht.	Tailing	Resolution	Sep.Factor	Area Ratio	Height Ratio	Conc. %	Norm Conc.
1	1.476	1.432	1.531	25026	12305	2.034	176.685	   	1	CO	0.000	9503	15.784	1.201	0.000	0.000	0	0	22.422	22.422
2	1.571	1.538	1.626	3857	1980	1.948	74.582	   	2	CH4	0.065	11827	12.683	1.160	1.611	0.000	0	0	9.465	9.465
3	2.000	1.952	2.308	2138588	1033165	2.070	536.728	   	3	CO2	0.355	17660	8.494	1.180	7.272	5.500	0	0	68.113	68.113

[Peak Table(Ch2)]
# of Peaks	0

[Peak Table(Ch3)]
# of Peaks	5
Peak#	R.Time	I.Time	F.Time	Area	Height	A/H	Conc.	Mark	ID#	Name	k'	Plate #	Plate Ht.	Tailing	Resolution	Sep.Factor	Area Ratio	Height Ratio	Conc. %	Norm Conc.
1	2.462	2.385	2.510	1479	503	2.941	0.000	   			0.000	10810	13.875	0.000	0.000	0.000	0	0	0.000	0.000
2	2.528	2.510	2.590	938	289	3.245	0.000	 V 			0.027	5090	29.469	0.000	0.558	0.000	0	0	0.000	0.000
3	2.605	2.590	2.675	359	127	2.818	0.000	 V 			0.058	1902	78.870	0.000	0.405	2.167	0	0	0.000	0.000
4	2.880	2.700	3.115	18383	4777	3.848	0.470	   	1	N2O	0.170	13293	11.284	1.527	1.623	2.923	0	0	100.000	100.000
5	3.448	3.148	3.602	1135	69	16.521	0.000	   	2	SF6	0.401	1089	137.743	0.765	2.195	2.360	0	0	0.000	0.000

[Compound Results(Ch1)]
# of IDs	6
ID#	Name	R.Time	Area	Height	Conc.	Curve	3rd	2nd	1st	Constant	Area Ratio	Height Ratio	Conc. %	Norm Conc.
1	CO	1.476	25026	12305	176.685	Linear	0.000000e+00	0.000000e+00	1.416423e+002	0.000000e+00	0	0	22.422	22.422
2	CH4	1.571	3857	1980	74.582	Linear	0.000000e+00	0.000000e+00	5.171738e+001	0.000000e+00	0	0	9.465	9.465
3	CO2	2.000	2138588	1033165	536.728	Linear	0.000000e+00	0.000000e+00	3.984494e+003	0.000000e+00	0	0	68.113	68.113
4	Ethylene	0.000	0	0	0.000	Linear	0.000000e+00	0.000000e+00	0.000000e+00	0.000000e+00	0	0	0.000	0.000
5	Acetylene	0.000	0	0	0.000	Linear	0.000000e+00	0.000000e+00	0.000000e+00	0.000000e+00	0	0	0.000	0.000
6	Ethane	0.000	0	0	0.000	Linear	0.000000e+00	0.000000e+00	0.000000e+00	0.000000e+00	0	0	0.000	0.000

[Compound Results(Ch2)]
# of IDs	5
ID#	Name	R.Time	Area	Height	Conc.	Curve	3rd	2nd	1st	Constant	Area Ratio	Height Ratio	Conc. %	Norm Conc.
1	Hydrogen	0.000	0	0	0.000	Linear	0.000000e+00	0.000000e+00	0.000000e+00	0.000000e+00	0	0	0.000	0.000
2	Oxygen	0.000	0	0	0.000	Linear	0.000000e+00	0.000000e+00	0.000000e+00	0.000000e+00	0	0	0.000	0.000
3	Nitrogen	0.000	0	0	0.000	Linear	0.000000e+00	0.000000e+00	0.000000e+00	0.000000e+00	0	0	0.000	0.000
4	Methane	0.000	0	0	0.000	Linear	0.000000e+00	0.000000e+00	0.000000e+00	0.000000e+00	0	0	0.000	0.000
5	Carbon Monoxide	0.000	0	0	0.000	Linear	0.000000e+00	0.000000e+00	0.000000e+00	0.000000e+00	0	0	0.000	0.000

[Compound Results(Ch3)]
# of IDs	2
ID#	Name	R.Time	Area	Height	Conc.	Curve	3rd	2nd	1st	Constant	Area Ratio	Height Ratio	Conc. %	Norm Conc.
1	N2O	2.880	18383	4777	0.470	Linear	0.000000e+00	0.000000e+00	3.915173e+004	0.000000e+00	0	0	100.000	100.000
2	SF6	3.448	1135	69	0.000	Linear	0.000000e+00	0.000000e+00	0.000000e+00	0.000000e+00	0	0	0.000	0.000

[Group Results(Ch1)]
# of Groups	0

[Group Results(Ch2)]
# of Groups	0

[Group Results(Ch3)]
# of Groups	0

[Chromatogram (Ch1)]
Interval(msec)	220
# of Points	1091
Start Time(min)	0.002
End Time(min)	3.998
R.Time (min)	Intensity
0.00167	6
0.00533	15
0.00900	19
0.01267	16
0.01633	11
0.02000	4
0.02367	4
0.02733	8
0.03100	16
0.03467	23
0.03833	33
0.04200	42
0.04567	39
0.04933	20
0.05300	-6
0.05667	-25
0.06033	-37
0.06400	-43
0.06767	-47
0.07133	-47
0.07500	-39
0.07867	-28
0.08233	-20
0.08600	-16
0.08967	-11
0.09333	-5
0.09700	1
0.10067	3
0.10433	4
0.10800	3
0.11167	7
0.11533	13
0.11900	15
0.12267	9
0.12633	3
0.13000	1
0.13367	1
0.13733	0
0.14100	0
0.14467	3
0.14833	6
0.15200	9
0.15567	10
0.15933	11
0.16300	12
0.16667	10
0.17033	6
0.17400	3
0.17767	2
0.18133	3
0.18500	4
0.18867	6
0.19233	8
0.19600	6
0.19967	2
0.20333	0
0.20700	3
0.21067	7
0.21433	12
0.21800	16
0.22167	18
0.22533	16
0.22900	10
0.23267	6
0.23633	3
0.24000	-1
0.24367	-4
0.24733	-7
0.25100	-7
0.25467	-5
0.25833	-6
0.26200	-7
0.26567	-10
0.26933	-10
0.27300	-6
0.27667	2
0.28033	11
0.28400	15
0.28767	14
0.29133	10
0.29500	7
0.29867	4
0.30233	-0
0.30600	-8
0.30967	-17
0.31333	-20
0.31700	-17
0.32067	-9
0.32433	-2
0.32800	-1
0.33167	1
0.33533	4
0.33900	6
0.34267	5
0.34633	3
0.35000	3
0.35367	8
0.35733	13
0.36100	16
0.36467	20
0.36833	18
0.37200	15
0.37567	13
0.37933	12
0.38300	11
0.38667	10
0.39033	13
0.39400	18
0.39767	22
0.40133	25
0.40500	28
0.40867	29
0.41233	26
0.41600	21
0.41967	13
0.42333	-0
0.42700	2
0.43067	11
0.43433	16
0.43800	11
0.44167	3
0.44533	-0
0.44900	-0
0.45267	1
0.45633	2
0.46000	6
0.46367	8
0.46733	9
0.47100	8
0.47467	5
0.47833	2
0.48200	2
0.48567	8
0.48933	12
0.49300	10
0.49667	4
0.50033	-2
0.50400	-5
0.50767	-0
0.51133	2
0.51500	-2
0.51867	-7
0.52233	-7
0.52600	-4
0.52967	2
0.53333	6
0.53700	7
0.54067	8
0.54433	10
0.54800	12
0.55167	16
0.55533	17
0.55900	15
0.56267	13
0.56633	13
0.57000	15
0.57367	16
0.57733	12
0.58100	7
0.58467	1
0.58833	-8
0.59200	-12
0.59567	-9
0.59933	-3
0.60300	2
0.60667	6
0.61033	10
0.61400	5
0.61767	-4
0.62133	-11
0.62500	-12
0.62867	-8
0.63233	-4
0.63600	0
0.63967	7
0.64333	12
0.64700	13
0.65067	12
0.65433	11
0.65800	9
0.66167	8
0.66533	6
0.66900	2
0.67267	-5
0.67633	-9
0.68000	-12
0.68367	-14
0.68733	-9
0.69100	-1
0.69467	5
0.69833	5
0.70200	2
0.70567	3
0.70933	8
0.71300	10
0.71667	8
0.72033	1
0.72400	-11
0.72767	-23
0.73133	-30
0.73500	-30
0.73867	-23
0.74233	-17
0.74600	-15
0.74967	-18
0.75333	-18
0.75700	-17
0.76067	-17
0.76433	-13
0.76800	-7
0.77167	-2
0.77533	-2
0.77900	-6
0.78267	-10
0.78633	-16
0.79000	-17
0.79367	-12
0.79733	-5
0.80100	1
0.80467	-0
0.80833	-6
0.81200	-10
0.81567	-15
0.81933	-21
0.82300	-28
0.82667	-33
0.83033	-41
0.83400	-50
0.83767	-56
0.84133	-58
0.84500	-53
0.84867	-41
0.85233	-28
0.85600	-16
0.85967	-7
0.86333	0
0.86700	4
0.87067	-3
0.87433	-9
0.87800	-12
0.88167	-20
0.88533	-32
0.88900	-46
0.89267	-56
0.89633	-61
0.90000	-66
0.90367	-70
0.90733	-72
0.91100	-70
0.91467	-64
0.91833	-56
0.92200	-47
0.92567	-37
0.92933	-27
0.93300	-19
0.93667	-14
0.94033	-10
0.94400	-2
0.94767	5
0.95133	5
0.95500	2
0.95867	2
0.96233	2
0.96600	1
0.96967	-0
0.97333	-0
0.97700	-1
0.98067	-1
0.98433	-1
0.98800	4
0.99167	12
0.99533	17
0.99900	18
1.00267	16
1.00633	11
1.01000	6
1.01367	2
1.01733	-0
1.02100	1
1.02467	1
1.02833	-0
1.03200	1
1.03567	3
1.03933	5
1.04300	4
1.04667	4
1.05033	8
1.05400	16
1.05767	21
1.06133	21
1.06500	19
1.06867	11
1.07233	6
1.07600	9
1.07967	13
1.08333	13
1.08700	11
1.09067	8
1.09433	8
1.09800	6
1.10167	5
1.10533	8
1.10900	9
1.11267	8
1.11633	3
1.12000	-4
1.12367	-12
1.12733	-14
1.13100	-12
1.13467	-6
1.13833	6
1.14200	16
1.14567	19
1.14933	12
1.15300	3
1.15667	-2
1.16033	-1
1.16400	1
1.16767	-1
1.17133	-8
1.17500	-12
1.17867	-14
1.18233	-13
1.18600	-9
1.18967	-12
1.19333	-15
1.19700	-16
1.20067	-18
1.20433	-25
1.20800	-32
1.21167	-32
1.21533	-31
1.21900	-29
1.22267	-26
1.22633	-27
1.23000	-31
1.23367	-29
1.23733	-25
1.24100	-22
1.24467	-20
1.24833	-19
1.25200	-18
1.25567	-15
1.25933	-12
1.26300	-5
1.26667	6
1.27033	18
1.27400	33
1.27767	47
1.28133	50
1.28500	44
1.28867	35
1.29233	23
1.29600	7
1.29967	-15
1.30333	-38
1.30700	-55
1.31067	-65
1.31433	-70
1.31800	-65
1.32167	-55
1.32533	-46
1.32900	-39
1.33267	-35
1.33633	-34
1.34000	-34
1.34367	-30
1.34733	-26
1.35100	-19
1.35467	-15
1.35833	-14
1.36200	-13
1.36567	-13
1.36933	-10
1.37300	-8
1.37667	-11
1.38033	-16
1.38400	-20
1.38767	-21
1.39133	-21
1.39500	-16
1.39867	-5
1.40233	7
1.40600	13
1.40967	11
1.41333	5
1.41700	-3
1.42067	-10
1.42433	-16
1.42800	-24
1.43167	-31
1.43533	-28
1.43900	-12
1.44267	37
1.44633	222
1.45000	763
1.45367	1907
1.45733	3797
1.46100	6143
1.46467	8432
1.46833	10296
1.47200	11570
1.47567	12158
1.47933	11961
1.48300	10954
1.48667	9312
1.49033	7370
1.49400	5472
1.49767	3844
1.50133	2564
1.50500	1617
1.50867	948
1.51233	489
1.51600	178
1.51967	-31
1.52333	-165
1.52700	-248
1.53067	-293
1.53433	-313
1.53800	-312
1.54167	-272
1.54533	-142
1.54900	120
1.55267	492
1.55633	894
1.56000	1251
1.56367	1523
1.56733	1689
1.57100	1720
1.57467	1601
1.57833	1350
1.58200	1032
1.58567	718
1.58933	451
1.59300	247
1.59667	99
1.60033	-2
1.60400	-66
1.60767	-108
1.61133	-133
1.61500	-152
1.61867	-166
1.62233	-171
1.62600	-171
1.62967	-169
1.63333	-168
1.63700	-162
1.64067	-154
1.64433	-149
1.64800	-147
1.65167	-147
1.65533	-150
1.65900	-156
1.66267	-161
1.66633	-163
1.67000	-164
1.67367	-167
1.67733	-168
1.68100	-165
1.68467	-159
1.68833	-154
1.69200	-151
1.69567	-151
1.69933	-152
1.70300	-154
1.70667	-152
1.71033	-149
1.71400	-146
1.71767	-141
1.72133	-132
1.72500	-122
1.72867	-117
1.73233	-121
1.73600	-131
1.73967	-138
1.74333	-137
1.74700	-134
1.75067	-134
1.75433	-135
1.75800	-132
1.76167	-127
1.76533	-123
1.76900	-123
1.77267	-124
1.77633	-126
1.78000	-125
1.78367	-120
1.78733	-114
1.79100	-113
1.79467	-113
1.79833	-115
1.80200	-117
1.80567	-117
1.80933	-114
1.81300	-112
1.81667	-110
1.82033	-107
1.82400	-105
1.82767	-105
1.83133	-97
1.83500	-85
1.83867	-75
1.84233	-73
1.84600	-76
1.84967	-80
1.85333	-84
1.85700	-87
1.86067	-90
1.86433	-95
1.86800	-103
1.87167	-111
1.87533	-120
1.87900	-126
1.88267	-126
1.88633	-115
1.89000	-103
1.89367	-102
1.89733	-108
1.90100	-112
1.90467	-112
1.90833	-111
1.91200	-110
1.91567	-108
1.91933	-107
1.92300	-104
1.92667	-101
1.93033	-99
1.93400	-92
1.93767	-83
1.94133	-72
1.94500	-64
1.94867	-62
1.95233	-54
1.95600	27
1.95967	539
1.96333	3149
1.96700	13334
1.97067	43737
1.97433	113631
1.97800	238037
1.98167	412847
1.98533	612143
1.98900	800282
1.99267	945528
1.99633	1026475
2.00000	1033150
2.00367	968839
2.00733	849527
2.01100	699894
2.01467	545707
2.01833	406458
2.02200	292249
2.02567	204961
2.02933	141537
2.03300	97056
2.03667	66588
2.04033	46015
2.04400	32222
2.04767	22980
2.05133	16762
2.05500	12539
2.05867	9630
2.06233	7592
2.06600	6140
2.06967	5086
2.07333	4299
2.07700	3689
2.08067	3198
2.08433	2798
2.08800	2472
2.09167	2205
2.09533	1982
2.09900	1795
2.10267	1644
2.10633	1518
2.11000	1411
2.11367	1316
2.11733	1228
2.12100	1148
2.12467	1078
2.12833	1020
2.13200	965
2.13567	910
2.13933	860
2.14300	819
2.14667	783
2.15033	753
2.15400	725
2.15767	698
2.16133	669
2.16500	639
2.16867	613
2.17233	586
2.17600	558
2.17967	536
2.18333	524
2.18700	514
2.19067	503
2.19433	489
2.19800	469
2.20167	447
2.20533	430
2.20900	415
2.21267	399
2.21633	388
2.22000	377
2.22367	366
2.22733	359
2.23100	356
2.23467	352
2.23833	345
2.24200	340
2.24567	333
2.24933	326
2.25300	315
2.25667	304
2.26033	298
2.26400	297
2.26767	293
2.27133	284
2.27500	274
2.27867	265
2.28233	253
2.28600	244
2.28967	240
2.29333	241
2.29700	242
2.30067	243
2.30433	239
2.30800	231
2.31167	223
2.31533	220
2.31900	226
2.32267	230
2.32633	229
2.33000	222
2.33367	212
2.33733	204
2.34100	202
2.34467	205
2.34833	204
2.35200	200
2.35567	198
2.35933	203
2.36300	210
2.36667	211
2.37033	212
2.37400	210
2.37767	204
2.38133	195
2.38500	184
2.38867	172
2.39233	163
2.39600	158
2.39967	158
2.40333	157
2.40700	154
2.41067	150
2.41433	148
2.41800	149
2.42167	153
2.42533	157
2.42900	163
2.43267	168
2.43633	166
2.44000	163
2.44367	161
2.44733	162
2.45100	165
2.45467	166
2.45833	165
2.46200	167
2.46567	173
2.46933	173
2.47300	165
2.47667	154
2.48033	141
2.48400	125
2.48767	112
2.49133	107
2.49500	109
2.49867	115
2.50233	123
2.50600	130
2.50967	131
2.51333	135
2.51700	141
2.52067	148
2.52433	146
2.52800	138
2.53167	129
2.53533	124
2.53900	126
2.54267	130
2.54633	132
2.55000	129
2.55367	126
2.55733	124
2.56100	124
2.56467	126
2.56833	130
2.57200	135
2.57567	136
2.57933	132
2.58300	131
2.58667	132
2.59033	128
2.59400	119
2.59767	112
2.60133	110
2.60500	106
2.60867	98
2.61233	93
2.61600	93
2.61967	95
2.62333	99
2.62700	105
2.63067	117
2.63433	126
2.63800	127
2.64167	123
2.64533	123
2.64900	127
2.65267	130
2.65633	127
2.66000	123
2.66367	122
2.66733	122
2.67100	119
2.67467	119
2.67833	119
2.68200	116
2.68567	112
2.68933	109
2.69300	105
2.69667	102
2.70033	100
2.70400	98
2.70767	99
2.71133	104
2.71500	106
2.71867	104
2.72233	100
2.72600	99
2.72967	102
2.73333	104
2.73700	105
2.74067	108
2.74433	110
2.74800	109
2.75167	110
2.75533	114
2.75900	124
2.76267	138
2.76633	150
2.77000	146
2.77367	131
2.77733	111
2.78100	97
2.78467	88
2.78833	86
2.79200	87
2.79567	88
2.79933	90
2.80300	96
2.80667	102
2.81033	109
2.81400	113
2.81767	111
2.82133	110
2.82500	108
2.82867	104
2.83233	104
2.83600	104
2.83967	106
2.84333	109
2.84700	110
2.85067	113
2.85433	116
2.85800	119
2.86167	122
2.86533	123
2.86900	124
2.87267	122
2.87633	114
2.88000	104
2.88367	98
2.88733	97
2.89100	94
2.89467	89
2.89833	84
2.90200	85
2.90567	92
2.90933	101
2.91300	108
2.91667	111
2.92033	114
2.92400	114
2.92767	111
2.93133	108
2.93500	106
2.93867	102
2.94233	102
2.94600	110
2.94967	118
2.95333	123
2.95700	122
2.96067	116
2.96433	107
2.96800	103
2.97167	100
2.97533	97
2.97900	91
2.98267	85
2.98633	85
2.99000	89
2.99367	93
2.99733	95
3.00100	95
3.00467	95
3.00833	97
3.01200	97
3.01567	99
3.01933	106
3.02300	117
3.02667	124
3.03033	126
3.03400	123
3.03767	117
3.04133	111
3.04500	105
3.04867	101
3.05233	98
3.05600	97
3.05967	93
3.06333	87
3.06700	82
3.07067	80
3.07433	82
3.07800	86
3.08167	91
3.08533	97
3.08900	103
3.09267	110
3.09633	112
3.10000	108
3.10367	102
3.10733	93
3.11100	83
3.11467	81
3.11833	85
3.12200	83
3.12567	79
3.12933	79
3.13300	83
3.13667	88
3.14033	93
3.14400	99
3.14767	101
3.15133	98
3.15500	89
3.15867	78
3.16233	73
3.16600	70
3.16967	69
3.17333	70
3.17700	70
3.18067	68
3.18433	68
3.18800	68
3.19167	69
3.19533	68
3.19900	71
3.20267	76
3.20633	76
3.21000	72
3.21367	68
3.21733	66
3.22100	65
3.22467	64
3.22833	59
3.23200	55
3.23567	57
3.23933	66
3.24300	80
3.24667	88
3.25033	85
3.25400	74
3.25767	60
3.26133	42
3.26500	26
3.26867	19
3.27233	19
3.27600	23
3.27967	30
3.28333	40
3.28700	54
3.29067	73
3.29433	83
3.29800	84
3.30167	87
3.30533	89
3.30900	89
3.31267	85
3.31633	79
3.32000	71
3.32367	61
3.32733	53
3.33100	49
3.33467	49
3.33833	52
3.34200	53
3.34567	47
3.34933	37
3.35300	26
3.35667	21
3.36033	22
3.36400	23
3.36767	24
3.37133	22
3.37500	20
3.37867	23
3.38233	30
3.38600	40
3.38967	46
3.39333	48
3.39700	52
3.40067	59
3.40433	63
3.40800	64
3.41167	65
3.41533	62
3.41900	53
3.42267	39
3.42633	33
3.43000	35
3.43367	37
3.43733	36
3.44100	38
3.44467	42
3.44833	42
3.45200	40
3.45567	41
3.45933	45
3.46300	47
3.46667	47
3.47033	46
3.47400	47
3.47767	46
3.48133	44
3.48500	46
3.48867	42
3.49233	34
3.49600	27
3.49967	24
3.50333	25
3.50700	27
3.51067	31
3.51433	38
3.51800	48
3.52167	54
3.52533	56
3.52900	52
3.53267	43
3.53633	31
3.54000	21
3.54367	18
3.54733	21
3.55100	23
3.55467	23
3.55833	24
3.56200	27
3.56567	28
3.56933	29
3.57300	32
3.57667	35
3.58033	35
3.58400	25
3.58767	14
3.59133	10
3.59500	11
3.59867	14
3.60233	18
3.60600	16
3.60967	12
3.61333	9
3.61700	14
3.62067	22
3.62433	25
3.62800	22
3.63167	17
3.63533	12
3.63900	8
3.64267	7
3.64633	5
3.65000	4
3.65367	4
3.65733	9
3.66100	15
3.66467	20
3.66833	22
3.67200	23
3.67567	22
3.67933	15
3.68300	8
3.68667	8
3.69033	4
3.69400	-4
3.69767	-12
3.70133	-16
3.70500	-17
3.70867	-11
3.71233	1
3.71600	13
3.71967	19
3.72333	20
3.72700	20
3.73067	14
3.73433	4
3.73800	-8
3.74167	-17
3.74533	-20
3.74900	-13
3.75267	-4
3.75633	4
3.76000	13
3.76367	18
3.76733	17
3.77100	10
3.77467	0
3.77833	-11
3.78200	-23
3.78567	-28
3.78933	-25
3.79300	-20
3.79667	-14
3.80033	-13
3.80400	-14
3.80767	-17
3.81133	-20
3.81500	-20
3.81867	-20
3.82233	-20
3.82600	-23
3.82967	-30
3.83333	-34
3.83700	-35
3.84067	-29
3.84433	-16
3.84800	-6
3.85167	0
3.85533	2
3.85900	-3
3.86267	-13
3.86633	-21
3.87000	-28
3.87367	-31
3.87733	-30
3.88100	-30
3.88467	-33
3.88833	-33
3.89200	-34
3.89567	-33
3.89933	-33
3.90300	-29
3.90667	-23
3.91033	-20
3.91400	-17
3.91767	-15
3.92133	-16
3.92500	-20
3.92867	-19
3.93233	-21
3.93600	-29
3.93967	-36
3.94333	-40
3.94700	-39
3.95067	-38
3.95433	-38
3.95800	-41
3.96167	-47
3.96533	-52
3.96900	-53
3.97267	-51
3.97633	-47
3.98000	-37
3.98367	-30
3.98733	-27
3.99100	-25
3.99467	-25
3.99833	-25

[Chromatogram (Ch2)]
Interval(msec)	220
# of Points	1091
Start Time(min)	0.002
End Time(min)	3.998
R.Time (min)	Intensity
0.00167	-0
0.00533	-0
0.00900	-0
0.01267	-0
0.01633	-0
0.02000	0
0.02367	0
0.02733	0
0.03100	0
0.03467	0
0.03833	0
0.04200	-0
0.04567	-0
0.04933	-0
0.05300	-1
0.05667	-1
0.06033	-1
0.06400	-0
0.06767	-0
0.07133	0
0.07500	0
0.07867	0
0.08233	0
0.08600	-0
0.08967	-0
0.09333	-0
0.09700	-0
0.10067	0
0.10433	0
0.10800	-0
0.11167	-0
0.11533	-1
0.11900	-1
0.12267	-1
0.12633	-1
0.13000	-1
0.13367	-0
0.13733	-0
0.14100	-0
0.14467	0
0.14833	0
0.15200	1
0.15567	1
0.15933	1
0.16300	1
0.16667	1
0.17033	1
0.17400	1
0.17767	1
0.18133	1
0.18500	0
0.18867	0
0.19233	-0
0.19600	-0
0.19967	-1
0.20333	-1
0.20700	-1
0.21067	-1
0.21433	-2
0.21800	-2
0.22167	-2
0.22533	-2
0.22900	-2
0.23267	-2
0.23633	-3
0.24000	-3
0.24367	-3
0.24733	-3
0.25100	-3
0.25467	-3
0.25833	-3
0.26200	-3
0.26567	-3
0.26933	-3
0.27300	-3
0.27667	-3
0.28033	-3
0.28400	-3
0.28767	-3
0.29133	-3
0.29500	-4
0.29867	-4
0.30233	-4
0.30600	-3
0.30967	-3
0.31333	-3
0.31700	-3
0.32067	-3
0.32433	-3
0.32800	-2
0.33167	-2
0.33533	-2
0.33900	-2
0.34267	-1
0.34633	-1
0.35000	-1
0.35367	-1
0.35733	-0
0.36100	0
0.36467	0
0.36833	0
0.37200	0
0.37567	0
0.37933	-0
0.38300	0
0.38667	0
0.39033	0
0.39400	0
0.39767	0
0.40133	0
0.40500	1
0.40867	1
0.41233	1
0.41600	1
0.41967	1
0.42333	1
0.42700	1
0.43067	1
0.43433	1
0.43800	0
0.44167	-0
0.44533	-0
0.44900	-1
0.45267	-1
0.45633	-1
0.46000	-1
0.46367	-1
0.46733	-1
0.47100	-1
0.47467	-2
0.47833	-2
0.48200	-2
0.48567	-2
0.48933	-2
0.49300	-2
0.49667	-3
0.50033	-2
0.50400	-2
0.50767	-2
0.51133	-2
0.51500	-2
0.51867	-2
0.52233	-2
0.52600	-2
0.52967	-2
0.53333	-2
0.53700	-1
0.54067	-1
0.54433	-1
0.54800	-1
0.55167	-1
0.55533	-1
0.55900	-1
0.56267	-1
0.56633	-1
0.57000	-1
0.57367	-1
0.57733	-1
0.58100	-1
0.58467	-1
0.58833	-1
0.59200	-1
0.59567	-1
0.59933	-2
0.60300	-2
0.60667	-2
0.61033	-2
0.61400	-2
0.61767	-2
0.62133	-2
0.62500	-1
0.62867	-1
0.63233	-1
0.63600	-0
0.63967	-0
0.64333	-0
0.64700	-0
0.65067	-1
0.65433	-1
0.65800	-1
0.66167	-1
0.66533	-1
0.66900	-1
0.67267	-1
0.67633	-2
0.68000	-2
0.68367	-2
0.68733	-2
0.69100	-2
0.69467	-1
0.69833	-1
0.70200	-1
0.70567	-1
0.70933	-1
0.71300	-1
0.71667	-0
0.72033	-0
0.72400	-0
0.72767	0
0.73133	0
0.73500	0
0.73867	0
0.74233	0
0.74600	-0
0.74967	-0
0.75333	-1
0.75700	-1
0.76067	-1
0.76433	-1
0.76800	-2
0.77167	-2
0.77533	-2
0.77900	-2
0.78267	-2
0.78633	-2
0.79000	-2
0.79367	-2
0.79733	-2
0.80100	-2
0.80467	-2
0.80833	-2
0.81200	-2
0.81567	-3
0.81933	-3
0.82300	-4
0.82667	-4
0.83033	-4
0.83400	-4
0.83767	-4
0.84133	-4
0.84500	-4
0.84867	-4
0.85233	-4
0.85600	-5
0.85967	-5
0.86333	-5
0.86700	-5
0.87067	-5
0.87433	-5
0.87800	-4
0.88167	-4
0.88533	-4
0.88900	-4
0.89267	-4
0.89633	-3
0.90000	-3
0.90367	-3
0.90733	-2
0.91100	-2
0.91467	-2
0.91833	-2
0.92200	-2
0.92567	-1
0.92933	-1
0.93300	-1
0.93667	-1
0.94033	-1
0.94400	-1
0.94767	-1
0.95133	-1
0.95500	-1
0.95867	-2
0.96233	-2
0.96600	-2
0.96967	-2
0.97333	-2
0.97700	-2
0.98067	-2
0.98433	-1
0.98800	-1
0.99167	-1
0.99533	-1
0.99900	-2
1.00267	-2
1.00633	-2
1.01000	-2
1.01367	-2
1.01733	-2
1.02100	-2
1.02467	-2
1.02833	-2
1.03200	-2
1.03567	-2
1.03933	-2
1.04300	-2
1.04667	-2
1.05033	-2
1.05400	-2
1.05767	-3
1.06133	-3
1.06500	-3
1.06867	-3
1.07233	-3
1.07600	-3
1.07967	-3
1.08333	-3
1.08700	-3
1.09067	-3
1.09433	-3
1.09800	-2
1.10167	-2
1.10533	-2
1.10900	-2
1.11267	-1
1.11633	-1
1.12000	-1
1.12367	-1
1.12733	-1
1.13100	-1
1.13467	-1
1.13833	-1
1.14200	-2
1.14567	-2
1.14933	-1
1.15300	-1
1.15667	-1
1.16033	-1
1.16400	-2
1.16767	-2
1.17133	-2
1.17500	-2
1.17867	-1
1.18233	-1
1.18600	-1
1.18967	-1
1.19333	-1
1.19700	-1
1.20067	-2
1.20433	-2
1.20800	-2
1.21167	-2
1.21533	-2
1.21900	-2
1.22267	-2
1.22633	-2
1.23000	-2
1.23367	-2
1.23733	-1
1.24100	-2
1.24467	-2
1.24833	-2
1.25200	-2
1.25567	-2
1.25933	-3
1.26300	-3
1.26667	-3
1.27033	-2
1.27400	-2
1.27767	-2
1.28133	-2
1.28500	-2
1.28867	-3
1.29233	-3
1.29600	-3
1.29967	-3
1.30333	-3
1.30700	-3
1.31067	-2
1.31433	-2
1.31800	-2
1.32167	-1
1.32533	-1
1.32900	-1
1.33267	-1
1.33633	-1
1.34000	-1
1.34367	-1
1.34733	-1
1.35100	-2
1.35467	-2
1.35833	-2
1.36200	-3
1.36567	-3
1.36933	-3
1.37300	-3
1.37667	-3
1.38033	-3
1.38400	-3
1.38767	-2
1.39133	-2
1.39500	-2
1.39867	-2
1.40233	-2
1.40600	-2
1.40967	-2
1.41333	-2
1.41700	-2
1.42067	-2
1.42433	-3
1.42800	-3
1.43167	-3
1.43533	-3
1.43900	-4
1.44267	-4
1.44633	-4
1.45000	-4
1.45367	-4
1.45733	-4
1.46100	-5
1.46467	-5
1.46833	-5
1.47200	-5
1.47567	-5
1.47933	-4
1.48300	-4
1.48667	-4
1.49033	-3
1.49400	-3
1.49767	-3
1.50133	-2
1.50500	-2
1.50867	-1
1.51233	-1
1.51600	-1
1.51967	-0
1.52333	0
1.52700	1
1.53067	1
1.53433	1
1.53800	2
1.54167	2
1.54533	1
1.54900	1
1.55267	1
1.55633	1
1.56000	1
1.56367	0
1.56733	-0
1.57100	-1
1.57467	-1
1.57833	-1
1.58200	-2
1.58567	-2
1.58933	-3
1.59300	-3
1.59667	-4
1.60033	-5
1.60400	-7
1.60767	-8
1.61133	-10
1.61500	-12
1.61867	-15
1.62233	-17
1.62600	-20
1.62967	-23
1.63333	-26
1.63700	-29
1.64067	-32
1.64433	-36
1.64800	-39
1.65167	-42
1.65533	-46
1.65900	-49
1.66267	-53
1.66633	-57
1.67000	-61
1.67367	-66
1.67733	-70
1.68100	-75
1.68467	-79
1.68833	-84
1.69200	-88
1.69567	-91
1.69933	-94
1.70300	-97
1.70667	-99
1.71033	-100
1.71400	-102
1.71767	-103
1.72133	-104
1.72500	-105
1.72867	-105
1.73233	-106
1.73600	-107
1.73967	-107
1.74333	-108
1.74700	-109
1.75067	-109
1.75433	-110
1.75800	-110
1.76167	-110
1.76533	-110
1.76900	-110
1.77267	-109
1.77633	-109
1.78000	-109
1.78367	-109
1.78733	-109
1.79100	-110
1.79467	-111
1.79833	-112
1.80200	-112
1.80567	-113
1.80933	-113
1.81300	-113
1.81667	-113
1.82033	-113
1.82400	-113
1.82767	-113
1.83133	-113
1.83500	-113
1.83867	-112
1.84233	-112
1.84600	-111
1.84967	-111
1.85333	-112
1.85700	-112
1.86067	-113
1.86433	-114
1.86800	-114
1.87167	-115
1.87533	-115
1.87900	-115
1.88267	-115
1.88633	-115
1.89000	-114
1.89367	-114
1.89733	-114
1.90100	-114
1.90467	-114
1.90833	-114
1.91200	-113
1.91567	-113
1.91933	-112
1.92300	-112
1.92667	-111
1.93033	-110
1.93400	-110
1.93767	-109
1.94133	-109
1.94500	-109
1.94867	-109
1.95233	-109
1.95600	-110
1.95967	-109
1.96333	-109
1.96700	-109
1.97067	-108
1.97433	-108
1.97800	-108
1.98167	-107
1.98533	-107
1.98900	-106
1.99267	-106
1.99633	-106
2.00000	-106
2.00367	-106
2.00733	-106
2.01100	-105
2.01467	-105
2.01833	-105
2.02200	-105
2.02567	-105
2.02933	-105
2.03300	-104
2.03667	-104
2.04033	-103
2.04400	-103
2.04767	-103
2.05133	-102
2.05500	-102
2.05867	-101
2.06233	-100
2.06600	-100
2.06967	-100
2.07333	-100
2.07700	-100
2.08067	-100
2.08433	-100
2.08800	-100
2.09167	-100
2.09533	-100
2.09900	-100
2.10267	-99
2.10633	-99
2.11000	-100
2.11367	-100
2.11733	-100
2.12100	-100
2.12467	-99
2.12833	-99
2.13200	-98
2.13567	-98
2.13933	-97
2.14300	-97
2.14667	-96
2.15033	-96
2.15400	-95
2.15767	-95
2.16133	-94
2.16500	-93
2.16867	-92
2.17233	-92
2.17600	-91
2.17967	-91
2.18333	-90
2.18700	-90
2.19067	-90
2.19433	-90
2.19800	-90
2.20167	-91
2.20533	-91
2.20900	-92
2.21267	-92
2.21633	-92
2.22000	-91
2.22367	-91
2.22733	-91
2.23100	-90
2.23467	-89
2.23833	-88
2.24200	-87
2.24567	-87
2.24933	-86
2.25300	-86
2.25667	-85
2.26033	-85
2.26400	-84
2.26767	-84
2.27133	-83
2.27500	-83
2.27867	-82
2.28233	-82
2.28600	-81
2.28967	-81
2.29333	-81
2.29700	-81
2.30067	-81
2.30433	-82
2.30800	-82
2.31167	-83
2.31533	-85
2.31900	-85
2.32267	-86
2.32633	-85
2.33000	-85
2.33367	-83
2.33733	-82
2.34100	-81
2.34467	-79
2.34833	-78
2.35200	-76
2.35567	-75
2.35933	-73
2.36300	-71
2.36667	-69
2.37033	-66
2.37400	-64
2.37767	-60
2.38133	-56
2.38500	-52
2.38867	-48
2.39233	-43
2.39600	-39
2.39967	-35
2.40333	-31
2.40700	-27
2.41067	-23
2.41433	-20
2.41800	-17
2.42167	-15
2.42533	-13
2.42900	-12
2.43267	-10
2.43633	-10
2.44000	-9
2.44367	-8
2.44733	-7
2.45100	-6
2.45467	-6
2.45833	-5
2.46200	-5
2.46567	-4
2.46933	-3
2.47300	-2
2.47667	-1
2.48033	0
2.48400	1
2.48767	2
2.49133	3
2.49500	3
2.49867	4
2.50233	5
2.50600	5
2.50967	6
2.51333	7
2.51700	7
2.52067	8
2.52433	9
2.52800	9
2.53167	10
2.53533	10
2.53900	11
2.54267	12
2.54633	13
2.55000	14
2.55367	15
2.55733	15
2.56100	15
2.56467	15
2.56833	15
2.57200	15
2.57567	15
2.57933	15
2.58300	14
2.58667	14
2.59033	14
2.59400	14
2.59767	14
2.60133	14
2.60500	14
2.60867	15
2.61233	15
2.61600	15
2.61967	16
2.62333	16
2.62700	16
2.63067	16
2.63433	16
2.63800	15
2.64167	15
2.64533	15
2.64900	16
2.65267	16
2.65633	17
2.66000	17
2.66367	18
2.66733	19
2.67100	19
2.67467	19
2.67833	19
2.68200	19
2.68567	19
2.68933	19
2.69300	20
2.69667	20
2.70033	21
2.70400	22
2.70767	22
2.71133	23
2.71500	23
2.71867	23
2.72233	23
2.72600	23
2.72967	22
2.73333	22
2.73700	22
2.74067	22
2.74433	22
2.74800	23
2.75167	23
2.75533	23
2.75900	24
2.76267	24
2.76633	25
2.77000	25
2.77367	26
2.77733	26
2.78100	27
2.78467	27
2.78833	28
2.79200	28
2.79567	28
2.79933	27
2.80300	27
2.80667	26
2.81033	25
2.81400	25
2.81767	24
2.82133	24
2.82500	24
2.82867	24
2.83233	24
2.83600	24
2.83967	24
2.84333	23
2.84700	21
2.85067	18
2.85433	12
2.85800	3
2.86167	-9
2.86533	-26
2.86900	-46
2.87267	-70
2.87633	-99
2.88000	-133
2.88367	-171
2.88733	-212
2.89100	-257
2.89467	-305
2.89833	-355
2.90200	-407
2.90567	-460
2.90933	-515
2.91300	-570
2.91667	-625
2.92033	-680
2.92400	-734
2.92767	-787
2.93133	-838
2.93500	-890
2.93867	-946
2.94233	-1005
2.94600	-1057
2.94967	-1092
2.95333	-1102
2.95700	-1087
2.96067	-1048
2.96433	-991
2.96800	-921
2.97167	-843
2.97533	-763
2.97900	-683
2.98267	-605
2.98633	-533
2.99000	-466
2.99367	-405
2.99733	-350
3.00100	-302
3.00467	-259
3.00833	-222
3.01200	-190
3.01567	-161
3.01933	-137
3.02300	-116
3.02667	-98
3.03033	-82
3.03400	-68
3.03767	-56
3.04133	-46
3.04500	-37
3.04867	-30
3.05233	-23
3.05600	-18
3.05967	-13
3.06333	-9
3.06700	-5
3.07067	-2
3.07433	0
3.07800	2
3.08167	4
3.08533	6
3.08900	7
3.09267	8
3.09633	9
3.10000	10
3.10367	11
3.10733	12
3.11100	12
3.11467	13
3.11833	13
3.12200	14
3.12567	14
3.12933	14
3.13300	15
3.13667	15
3.14033	15
3.14400	16
3.14767	16
3.15133	16
3.15500	16
3.15867	17
3.16233	17
3.16600	17
3.16967	18
3.17333	18
3.17700	19
3.18067	19
3.18433	20
3.18800	20
3.19167	20
3.19533	21
3.19900	21
3.20267	21
3.20633	21
3.21000	21
3.21367	21
3.21733	21
3.22100	21
3.22467	21
3.22833	21
3.23200	21
3.23567	21
3.23933	21
3.24300	21
3.24667	21
3.25033	21
3.25400	21
3.25767	21
3.26133	21
3.26500	22
3.26867	22
3.27233	22
3.27600	22
3.27967	22
3.28333	22
3.28700	22
3.29067	22
3.29433	22
3.29800	22
3.30167	22
3.30533	22
3.30900	23
3.31267	23
3.31633	23
3.32000	23
3.32367	24
3.32733	24
3.33100	24
3.33467	24
3.33833	24
3.34200	23
3.34567	23
3.34933	23
3.35300	23
3.35667	23
3.36033	23
3.36400	23
3.36767	23
3.37133	23
3.37500	23
3.37867	23
3.38233	23
3.38600	23
3.38967	23
3.39333	23
3.39700	23
3.40067	23
3.40433	23
3.40800	23
3.41167	23
3.41533	23
3.41900	23
3.42267	23
3.42633	23
3.43000	23
3.43367	23
3.43733	23
3.44100	24
3.44467	24
3.44833	24
3.45200	25
3.45567	25
3.45933	26
3.46300	26
3.46667	27
3.47033	27
3.47400	28
3.47767	28
3.48133	28
3.48500	28
3.48867	28
3.49233	28
3.49600	28
3.49967	28
3.50333	29
3.50700	29
3.51067	29
3.51433	29
3.51800	29
3.52167	29
3.52533	28
3.52900	28
3.53267	28
3.53633	29
3.54000	29
3.54367	29
3.54733	29
3.55100	28
3.55467	28
3.55833	28
3.56200	28
3.56567	27
3.56933	27
3.57300	27
3.57667	27
3.58033	27
3.58400	27
3.58767	27
3.59133	27
3.59500	27
3.59867	27
3.60233	26
3.60600	26
3.60967	26
3.61333	26
3.61700	27
3.62067	27
3.62433	27
3.62800	27
3.63167	26
3.63533	26
3.63900	26
3.64267	26
3.64633	26
3.65000	25
3.65367	25
3.65733	25
3.66100	25
3.66467	25
3.66833	25
3.67200	25
3.67567	24
3.67933	24
3.68300	24
3.68667	24
3.69033	24
3.69400	24
3.69767	24
3.70133	24
3.70500	24
3.70867	24
3.71233	24
3.71600	24
3.71967	24
3.72333	25
3.72700	25
3.73067	25
3.73433	25
3.73800	25
3.74167	25
3.74533	25
3.74900	25
3.75267	25
3.75633	25
3.76000	25
3.76367	25
3.76733	25
3.77100	24
3.77467	24
3.77833	24
3.78200	24
3.78567	24
3.78933	24
3.79300	23
3.79667	23
3.80033	23
3.80400	23
3.80767	23
3.81133	23
3.81500	23
3.81867	23
3.82233	23
3.82600	23
3.82967	23
3.83333	23
3.83700	23
3.84067	23
3.84433	23
3.84800	23
3.85167	23
3.85533	23
3.85900	23
3.86267	23
3.86633	23
3.87000	23
3.87367	23
3.87733	23
3.88100	23
3.88467	23
3.88833	23
3.89200	23
3.89567	23
3.89933	23
3.90300	23
3.90667	24
3.91033	24
3.91400	24
3.91767	24
3.92133	24
3.92500	24
3.92867	25
3.93233	25
3.93600	25
3.93967	25
3.94333	26
3.94700	26
3.95067	26
3.95433	26
3.95800	26
3.96167	26
3.96533	26
3.96900	26
3.97267	26
3.97633	25
3.98000	26
3.98367	26
3.98733	26
3.99100	25
3.99467	25
3.99833	25

[Chromatogram (Ch3)]
Interval(msec)	220
# of Points	1091
Start Time(min)	0.002
End Time(min)	3.998
R.Time (min)	Intensity
0.00167	-0
0.00533	-1
0.00900	-1
0.01267	-0
0.01633	-0
0.02000	2
0.02367	2
0.02733	2
0.03100	1
0.03467	-0
0.03833	-2
0.04200	-4
0.04567	-5
0.04933	-4
0.05300	-3
0.05667	-2
0.06033	-1
0.06400	-0
0.06767	-1
0.07133	-1
0.07500	-0
0.07867	-2
0.08233	-2
0.08600	-2
0.08967	-1
0.09333	1
0.09700	2
0.10067	4
0.10433	4
0.10800	2
0.11167	-0
0.11533	-2
0.11900	-2
0.12267	0
0.12633	2
0.13000	4
0.13367	4
0.13733	3
0.14100	2
0.14467	0
0.14833	0
0.15200	1
0.15567	3
0.15933	3
0.16300	2
0.16667	2
0.17033	3
0.17400	4
0.17767	6
0.18133	4
0.18500	3
0.18867	3
0.19233	2
0.19600	0
0.19967	1
0.20333	3
0.20700	4
0.21067	4
0.21433	1
0.21800	-2
0.22167	-2
0.22533	-1
0.22900	-1
0.23267	-3
0.23633	-4
0.24000	-3
0.24367	-1
0.24733	-1
0.25100	-1
0.25467	-2
0.25833	-5
0.26200	-5
0.26567	-4
0.26933	-3
0.27300	-1
0.27667	1
0.28033	3
0.28400	2
0.28767	-0
0.29133	-0
0.29500	-1
0.29867	-2
0.30233	-2
0.30600	-3
0.30967	-2
0.31333	-2
0.31700	-1
0.32067	-1
0.32433	-2
0.32800	-0
0.33167	2
0.33533	2
0.33900	1
0.34267	-1
0.34633	-2
0.35000	-2
0.35367	-0
0.35733	1
0.36100	2
0.36467	3
0.36833	2
0.37200	1
0.37567	-0
0.37933	-1
0.38300	-1
0.38667	-1
0.39033	0
0.39400	1
0.39767	1
0.40133	2
0.40500	2
0.40867	1
0.41233	-0
0.41600	1
0.41967	4
0.42333	7
0.42700	8
0.43067	7
0.43433	6
0.43800	6
0.44167	6
0.44533	5
0.44900	6
0.45267	4
0.45633	4
0.46000	5
0.46367	8
0.46733	10
0.47100	9
0.47467	9
0.47833	8
0.48200	8
0.48567	8
0.48933	6
0.49300	5
0.49667	3
0.50033	3
0.50400	3
0.50767	1
0.51133	1
0.51500	0
0.51867	1
0.52233	4
0.52600	6
0.52967	7
0.53333	6
0.53700	6
0.54067	8
0.54433	9
0.54800	7
0.55167	6
0.55533	4
0.55900	1
0.56267	-0
0.56633	0
0.57000	2
0.57367	1
0.57733	-1
0.58100	-1
0.58467	1
0.58833	1
0.59200	1
0.59567	1
0.59933	3
0.60300	3
0.60667	4
0.61033	3
0.61400	4
0.61767	5
0.62133	5
0.62500	6
0.62867	5
0.63233	2
0.63600	1
0.63967	3
0.64333	5
0.64700	6
0.65067	6
0.65433	6
0.65800	5
0.66167	6
0.66533	8
0.66900	8
0.67267	9
0.67633	8
0.68000	7
0.68367	7
0.68733	7
0.69100	4
0.69467	1
0.69833	-0
0.70200	0
0.70567	3
0.70933	4
0.71300	5
0.71667	4
0.72033	2
0.72400	1
0.72767	1
0.73133	1
0.73500	-0
0.73867	-1
0.74233	2
0.74600	4
0.74967	4
0.75333	3
0.75700	1
0.76067	-1
0.76433	-3
0.76800	-2
0.77167	-1
0.77533	1
0.77900	2
0.78267	2
0.78633	-0
0.79000	-1
0.79367	1
0.79733	1
0.80100	-0
0.80467	0
0.80833	-2
0.81200	-5
0.81567	-4
0.81933	-2
0.82300	-1
0.82667	-1
0.83033	-2
0.83400	-2
0.83767	-2
0.84133	-3
0.84500	-3
0.84867	-6
0.85233	-7
0.85600	-7
0.85967	-4
0.86333	-4
0.86700	-4
0.87067	-5
0.87433	-6
0.87800	-6
0.88167	-3
0.88533	-2
0.88900	-1
0.89267	-0
0.89633	2
0.90000	2
0.90367	2
0.90733	2
0.91100	2
0.91467	1
0.91833	1
0.92200	2
0.92567	2
0.92933	3
0.93300	2
0.93667	0
0.94033	1
0.94400	-0
0.94767	-1
0.95133	-0
0.95500	0
0.95867	0
0.96233	3
0.96600	3
0.96967	3
0.97333	2
0.97700	1
0.98067	4
0.98433	6
0.98800	6
0.99167	8
0.99533	8
0.99900	9
1.00267	12
1.00633	14
1.01000	14
1.01367	13
1.01733	13
1.02100	13
1.02467	14
1.02833	13
1.03200	14
1.03567	15
1.03933	16
1.04300	17
1.04667	17
1.05033	17
1.05400	15
1.05767	13
1.06133	12
1.06500	13
1.06867	15
1.07233	17
1.07600	17
1.07967	18
1.08333	17
1.08700	14
1.09067	11
1.09433	10
1.09800	9
1.10167	11
1.10533	12
1.10900	12
1.11267	13
1.11633	12
1.12000	11
1.12367	10
1.12733	9
1.13100	10
1.13467	12
1.13833	13
1.14200	14
1.14567	14
1.14933	13
1.15300	13
1.15667	14
1.16033	14
1.16400	14
1.16767	12
1.17133	13
1.17500	15
1.17867	15
1.18233	13
1.18600	13
1.18967	13
1.19333	14
1.19700	13
1.20067	11
1.20433	8
1.20800	5
1.21167	5
1.21533	7
1.21900	9
1.22267	10
1.22633	13
1.23000	13
1.23367	12
1.23733	11
1.24100	12
1.24467	12
1.24833	14
1.25200	16
1.25567	16
1.25933	14
1.26300	13
1.26667	14
1.27033	14
1.27400	14
1.27767	15
1.28133	15
1.28500	16
1.28867	20
1.29233	20
1.29600	21
1.29967	20
1.30333	20
1.30700	20
1.31067	19
1.31433	19
1.31800	19
1.32167	18
1.32533	16
1.32900	16
1.33267	16
1.33633	16
1.34000	15
1.34367	11
1.34733	9
1.35100	9
1.35467	9
1.35833	9
1.36200	10
1.36567	10
1.36933	11
1.37300	12
1.37667	12
1.38033	13
1.38400	14
1.38767	13
1.39133	14
1.39500	13
1.39867	11
1.40233	10
1.40600	11
1.40967	11
1.41333	11
1.41700	11
1.42067	10
1.42433	11
1.42800	12
1.43167	12
1.43533	10
1.43900	10
1.44267	10
1.44633	9
1.45000	9
1.45367	11
1.45733	13
1.46100	14
1.46467	14
1.46833	14
1.47200	14
1.47567	14
1.47933	15
1.48300	15
1.48667	13
1.49033	11
1.49400	11
1.49767	11
1.50133	12
1.50500	13
1.50867	13
1.51233	11
1.51600	7
1.51967	7
1.52333	6
1.52700	6
1.53067	5
1.53433	3
1.53800	3
1.54167	4
1.54533	6
1.54900	7
1.55267	8
1.55633	8
1.56000	8
1.56367	9
1.56733	6
1.57100	4
1.57467	6
1.57833	6
1.58200	6
1.58567	7
1.58933	8
1.59300	8
1.59667	7
1.60033	5
1.60400	5
1.60767	7
1.61133	10
1.61500	10
1.61867	11
1.62233	13
1.62600	12
1.62967	9
1.63333	7
1.63700	7
1.64067	9
1.64433	9
1.64800	10
1.65167	11
1.65533	12
1.65900	12
1.66267	14
1.66633	14
1.67000	12
1.67367	13
1.67733	14
1.68100	16
1.68467	19
1.68833	19
1.69200	19
1.69567	20
1.69933	20
1.70300	20
1.70667	18
1.71033	16
1.71400	16
1.71767	16
1.72133	15
1.72500	16
1.72867	16
1.73233	18
1.73600	20
1.73967	21
1.74333	21
1.74700	22
1.75067	22
1.75433	21
1.75800	21
1.76167	23
1.76533	24
1.76900	23
1.77267	23
1.77633	23
1.78000	23
1.78367	25
1.78733	27
1.79100	27
1.79467	28
1.79833	30
1.80200	31
1.80567	29
1.80933	27
1.81300	29
1.81667	30
1.82033	31
1.82400	32
1.82767	34
1.83133	36
1.83500	39
1.83867	39
1.84233	39
1.84600	40
1.84967	41
1.85333	41
1.85700	40
1.86067	39
1.86433	39
1.86800	39
1.87167	38
1.87533	37
1.87900	37
1.88267	38
1.88633	39
1.89000	41
1.89367	42
1.89733	44
1.90100	46
1.90467	46
1.90833	45
1.91200	48
1.91567	50
1.91933	52
1.92300	54
1.92667	56
1.93033	58
1.93400	61
1.93767	64
1.94133	66
1.94500	65
1.94867	65
1.95233	64
1.95600	64
1.95967	66
1.96333	68
1.96700	69
1.97067	69
1.97433	69
1.97800	70
1.98167	72
1.98533	75
1.98900	77
1.99267	79
1.99633	79
2.00000	78
2.00367	76
2.00733	76
2.01100	76
2.01467	78
2.01833	81
2.02200	83
2.02567	84
2.02933	83
2.03300	83
2.03667	85
2.04033	86
2.04400	86
2.04767	88
2.05133	91
2.05500	93
2.05867	94
2.06233	94
2.06600	94
2.06967	94
2.07333	94
2.07700	94
2.08067	96
2.08433	97
2.08800	100
2.09167	103
2.09533	103
2.09900	103
2.10267	104
2.10633	106
2.11000	107
2.11367	109
2.11733	110
2.12100	112
2.12467	115
2.12833	117
2.13200	118
2.13567	117
2.13933	117
2.14300	115
2.14667	115
2.15033	116
2.15400	117
2.15767	117
2.16133	119
2.16500	120
2.16867	122
2.17233	124
2.17600	127
2.17967	126
2.18333	127
2.18700	128
2.19067	128
2.19433	132
2.19800	135
2.20167	135
2.20533	135
2.20900	134
2.21267	135
2.21633	136
2.22000	136
2.22367	136
2.22733	136
2.23100	138
2.23467	139
2.23833	142
2.24200	143
2.24567	143
2.24933	144
2.25300	145
2.25667	145
2.26033	145
2.26400	146
2.26767	149
2.27133	150
2.27500	151
2.27867	154
2.28233	154
2.28600	153
2.28967	153
2.29333	153
2.29700	153
2.30067	155
2.30433	156
2.30800	156
2.31167	157
2.31533	161
2.31900	164
2.32267	166
2.32633	166
2.33000	167
2.33367	166
2.33733	165
2.34100	164
2.34467	164
2.34833	167
2.35200	169
2.35567	170
2.35933	170
2.36300	170
2.36667	170
2.37033	170
2.37400	166
2.37767	163
2.38133	164
2.38500	167
2.38867	168
2.39233	169
2.39600	170
2.39967	170
2.40333	171
2.40700	174
2.41067	177
2.41433	178
2.41800	179
2.42167	178
2.42533	178
2.42900	181
2.43267	184
2.43633	184
2.44000	187
2.44367	232
2.44733	353
2.45100	485
2.45467	594
2.45833	655
2.46200	662
2.46567	645
2.46933	623
2.47300	611
2.47667	603
2.48033	586
2.48400	556
2.48767	517
2.49133	479
2.49500	445
2.49867	418
2.50233	402
2.50600	392
2.50967	392
2.51333	399
2.51700	413
2.52067	428
2.52433	439
2.52800	442
2.53167	437
2.53533	423
2.53900	403
2.54267	379
2.54633	354
2.55000	333
2.55367	315
2.55733	298
2.56100	286
2.56467	278
2.56833	275
2.57200	274
2.57567	273
2.57933	271
2.58300	267
2.58667	266
2.59033	268
2.59400	270
2.59767	272
2.60133	272
2.60500	273
2.60867	271
2.61233	265
2.61600	259
2.61967	251
2.62333	239
2.62700	226
2.63067	216
2.63433	207
2.63800	199
2.64167	191
2.64533	185
2.64900	180
2.65267	172
2.65633	165
2.66000	159
2.66367	153
2.66733	148
2.67100	143
2.67467	139
2.67833	136
2.68200	135
2.68567	135
2.68933	135
2.69300	135
2.69667	137
2.70033	140
2.70400	142
2.70767	145
2.71133	148
2.71500	151
2.71867	156
2.72233	163
2.72600	167
2.72967	168
2.73333	169
2.73700	169
2.74067	171
2.74433	173
2.74800	177
2.75167	180
2.75533	185
2.75900	188
2.76267	189
2.76633	190
2.77000	192
2.77367	193
2.77733	193
2.78100	195
2.78467	197
2.78833	201
2.79200	205
2.79567	209
2.79933	213
2.80300	217
2.80667	222
2.81033	226
2.81400	230
2.81767	236
2.82133	245
2.82500	261
2.82867	292
2.83233	350
2.83600	456
2.83967	631
2.84333	897
2.84700	1264
2.85067	1729
2.85433	2271
2.85800	2858
2.86167	3444
2.86533	3981
2.86900	4425
2.87267	4743
2.87633	4919
2.88000	4955
2.88367	4863
2.88733	4670
2.89100	4402
2.89467	4087
2.89833	3746
2.90200	3401
2.90567	3064
2.90933	2745
2.91300	2449
2.91667	2179
2.92033	1938
2.92400	1725
2.92767	1534
2.93133	1362
2.93500	1211
2.93867	1080
2.94233	966
2.94600	865
2.94967	777
2.95333	701
2.95700	636
2.96067	581
2.96433	534
2.96800	490
2.97167	455
2.97533	425
2.97900	398
2.98267	373
2.98633	355
2.99000	339
2.99367	323
2.99733	309
3.00100	300
3.00467	290
3.00833	279
3.01200	270
3.01567	263
3.01933	258
3.02300	256
3.02667	251
3.03033	245
3.03400	240
3.03767	237
3.04133	236
3.04500	236
3.04867	236
3.05233	234
3.05600	233
3.05967	232
3.06333	232
3.06700	233
3.07067	233
3.07433	233
3.07800	231
3.08167	229
3.08533	227
3.08900	228
3.09267	229
3.09633	231
3.10000	231
3.10367	229
3.10733	229
3.11100	229
3.11467	228
3.11833	227
3.12200	228
3.12567	230
3.12933	231
3.13300	231
3.13667	232
3.14033	232
3.14400	232
3.14767	233
3.15133	236
3.15500	237
3.15867	238
3.16233	240
3.16600	242
3.16967	244
3.17333	247
3.17700	247
3.18067	247
3.18433	246
3.18800	246
3.19167	247
3.19533	247
3.19900	248
3.20267	248
3.20633	250
3.21000	252
3.21367	256
3.21733	260
3.22100	262
3.22467	263
3.22833	264
3.23200	265
3.23567	267
3.23933	270
3.24300	273
3.24667	275
3.25033	278
3.25400	278
3.25767	279
3.26133	280
3.26500	279
3.26867	280
3.27233	281
3.27600	283
3.27967	286
3.28333	286
3.28700	285
3.29067	284
3.29433	285
3.29800	287
3.30167	289
3.30533	291
3.30900	294
3.31267	298
3.31633	302
3.32000	306
3.32367	308
3.32733	310
3.33100	310
3.33467	309
3.33833	309
3.34200	308
3.34567	311
3.34933	314
3.35300	315
3.35667	316
3.36033	317
3.36400	318
3.36767	318
3.37133	317
3.37500	317
3.37867	317
3.38233	319
3.38600	321
3.38967	324
3.39333	328
3.39700	331
3.40067	334
3.40433	336
3.40800	334
3.41167	334
3.41533	333
3.41900	332
3.42267	331
3.42633	331
3.43000	334
3.43367	336
3.43733	337
3.44100	340
3.44467	344
3.44833	345
3.45200	345
3.45567	344
3.45933	343
3.46300	342
3.46667	343
3.47033	344
3.47400	344
3.47767	344
3.48133	343
3.48500	343
3.48867	345
3.49233	346
3.49600	347
3.49967	345
3.50333	346
3.50700	347
3.51067	346
3.51433	346
3.51800	344
3.52167	343
3.52533	344
3.52900	345
3.53267	345
3.53633	342
3.54000	341
3.54367	340
3.54733	339
3.55100	339
3.55467	338
3.55833	338
3.56200	339
3.56567	341
3.56933	342
3.57300	344
3.57667	346
3.58033	346
3.58400	343
3.58767	336
3.59133	331
3.59500	322
3.59867	310
3.60233	299
3.60600	294
3.60967	294
3.61333	299
3.61700	308
3.62067	321
3.62433	335
3.62800	350
3.63167	368
3.63533	385
3.63900	402
3.64267	416
3.64633	431
3.65000	445
3.65367	459
3.65733	473
3.66100	487
3.66467	501
3.66833	513
3.67200	527
3.67567	539
3.67933	549
3.68300	560
3.68667	569
3.69033	576
3.69400	582
3.69767	589
3.70133	595
3.70500	596
3.70867	598
3.71233	600
3.71600	602
3.71967	604
3.72333	605
3.72700	606
3.73067	607
3.73433	609
3.73800	608
3.74167	608
3.74533	608
3.74900	608
3.75267	610
3.75633	612
3.76000	615
3.76367	615
3.76733	614
3.77100	614
3.77467	613
3.77833	612
3.78200	611
3.78567	611
3.78933	611
3.79300	611
3.79667	610
3.80033	610
3.80400	609
3.80767	608
3.81133	609
3.81500	611
3.81867	612
3.82233	610
3.82600	609
3.82967	609
3.83333	611
3.83700	612
3.84067	612
3.84433	611
3.84800	611
3.85167	609
3.85533	607
3.85900	603
3.86267	600
3.86633	597
3.87000	595
3.87367	595
3.87733	596
3.88100	596
3.88467	596
3.88833	595
3.89200	594
3.89567	594
3.89933	592
3.90300	592
3.90667	593
3.91033	593
3.91400	593
3.91767	592
3.92133	590
3.92500	589
3.92867	588
3.93233	588
3.93600	585
3.93967	583
3.94333	581
3.94700	580
3.95067	579
3.95433	579
3.95800	581
3.96167	580
3.96533	578
3.96900	575
3.97267	573
3.97633	571
3.98000	568
3.98367	566
3.98733	563
3.99100	560
3.99467	555
3.99833	550

[Status Trace (Column Oven Temperature)]
Interval(msec)	1000
# of Points	240
Start Time(min)	0.010
End Time(min)	3.993
Intensity Units	
Intensity Multiplier	1
R.Time (min)	Intensity
0.00963	35.02
0.02630	35.02
0.04297	35.01
0.05963	35.01
0.07630	35.00
0.09297	35.00
0.10963	35.01
0.12630	35.01
0.14297	35.02
0.15963	35.01
0.17630	35.00
0.19297	34.99
0.20963	35.00
0.22630	35.01
0.24297	35.02
0.25963	35.03
0.27630	35.04
0.29297	35.04
0.30963	35.04
0.32630	35.04
0.34297	35.03
0.35963	35.03
0.37630	35.02
0.39297	35.01
0.40963	35.00
0.42630	35.00
0.44297	35.01
0.45963	35.01
0.47630	35.02
0.49297	35.03
0.50963	35.02
0.52630	35.03
0.54297	35.02
0.55963	35.01
0.57630	35.00
0.59297	35.00
0.60963	34.99
0.62630	34.98
0.64297	34.99
0.65963	35.00
0.67630	35.00
0.69297	35.00
0.70963	34.98
0.72630	34.98
0.74297	34.98
0.75963	34.97
0.77630	34.97
0.79297	34.98
0.80963	34.98
0.82630	35.00
0.84297	35.01
0.85963	35.02
0.87630	35.03
0.89297	35.03
0.90963	35.02
0.92630	35.01
0.94297	35.01
0.95963	35.00
0.97630	34.99
0.99297	35.00
1.00963	35.00
1.02630	35.00
1.04297	35.00
1.05963	35.01
1.07630	35.01
1.09297	35.01
1.10963	34.99
1.12630	34.99
1.14297	34.98
1.15963	34.97
1.17630	34.98
1.19297	34.99
1.20963	34.98
1.22630	34.98
1.24297	34.98
1.25963	34.98
1.27630	34.99
1.29297	35.00
1.30963	34.99
1.32630	34.98
1.34297	34.98
1.35963	34.97
1.37630	34.97
1.39297	34.98
1.40963	34.97
1.42630	35.00
1.44297	35.01
1.45963	35.02
1.47630	35.01
1.49297	35.01
1.50963	35.00
1.52630	34.98
1.54297	34.96
1.55963	34.96
1.57630	34.96
1.59297	34.98
1.60963	35.07
1.62630	35.21
1.64297	35.41
1.65963	35.66
1.67630	36.00
1.69297	36.36
1.70963	36.71
1.72630	37.05
1.74297	37.39
1.75963	37.71
1.77630	38.02
1.79297	38.36
1.80963	38.70
1.82630	39.02
1.84297	39.34
1.85963	39.68
1.87630	40.02
1.89297	40.36
1.90963	40.69
1.92630	40.99
1.94297	41.33
1.95963	41.66
1.97630	41.97
1.99297	42.29
2.00963	42.62
2.02630	42.95
2.04297	43.28
2.05963	43.59
2.07630	43.93
2.09297	44.25
2.10963	44.59
2.12630	44.92
2.14297	45.26
2.15963	45.57
2.17630	45.89
2.19297	46.21
2.20963	46.56
2.22630	46.89
2.24297	47.22
2.25963	47.54
2.27630	47.87
2.29297	48.18
2.30963	48.56
2.32630	48.89
2.34297	49.20
2.35963	49.45
2.37630	49.60
2.39297	49.62
2.40963	49.61
2.42630	49.62
2.44297	49.62
2.45963	49.64
2.47630	49.63
2.49297	49.67
2.50963	49.68
2.52630	49.71
2.54297	49.71
2.55963	49.72
2.57630	49.73
2.59297	49.74
2.60963	49.75
2.62630	49.77
2.64297	49.78
2.65963	49.79
2.67630	49.81
2.69297	49.82
2.70963	49.82
2.72630	49.85
2.74297	49.87
2.75963	49.86
2.77630	49.85
2.79297	49.84
2.80963	49.86
2.82630	49.87
2.84297	49.88
2.85963	49.88
2.87630	49.88
2.89297	49.89
2.90963	49.89
2.92630	49.90
2.94297	49.90
2.95963	49.92
2.97630	49.93
2.99297	49.95
3.00963	49.96
3.02630	49.99
3.04297	49.99
3.05963	50.00
3.07630	50.00
3.09297	50.01
3.10963	50.01
3.12630	50.03
3.14297	50.03
3.15963	50.04
3.17630	50.04
3.19297	50.04
3.20963	50.04
3.22630	50.06
3.24297	50.06
3.25963	50.06
3.27630	50.07
3.29297	50.07
3.30963	50.07
3.32630	50.08
3.34297	50.08
3.35963	50.08
3.37630	50.09
3.39297	50.10
3.40963	50.11
3.42630	50.12
3.44297	50.11
3.45963	50.09
3.47630	50.07
3.49297	50.06
3.50963	50.06
3.52630	50.04
3.54297	50.03
3.55963	50.02
3.57630	50.02
3.59297	50.03
3.60963	50.02
3.62630	50.03
3.64297	50.03
3.65963	50.03
3.67630	50.03
3.69297	50.04
3.70963	50.04
3.72630	50.04
3.74297	50.03
3.75963	50.04
3.77630	50.04
3.79297	50.05
3.80963	50.05
3.82630	50.06
3.84297	50.08
3.85963	50.08
3.87630	50.08
3.89297	50.08
3.90963	50.08
3.92630	50.07
3.94297	50.06
3.95963	50.06
3.97630	50.05
3.99297	50.05

[Status Trace (Injection Unit Temperature)]
Interval(msec)	1000
# of Points	240
Start Time(min)	0.010
End Time(min)	3.993
Intensity Units	
Intensity Multiplier	1
R.Time (min)	Intensity
0.00963	99.97
0.02630	99.98
0.04297	99.97
0.05963	99.98
0.07630	99.98
0.09297	99.98
0.10963	99.97
0.12630	99.98
0.14297	99.98
0.15963	99.98
0.17630	99.98
0.19297	99.98
0.20963	99.98
0.22630	99.98
0.24297	99.98
0.25963	99.98
0.27630	99.98
0.29297	99.98
0.30963	99.98
0.32630	99.98
0.34297	99.98
0.35963	99.98
0.37630	99.98
0.39297	99.98
0.40963	99.98
0.42630	99.98
0.44297	99.98
0.45963	99.98
0.47630	99.98
0.49297	99.98
0.50963	99.97
0.52630	99.98
0.54297	99.99
0.55963	99.99
0.57630	99.98
0.59297	99.98
0.60963	99.98
0.62630	99.98
0.64297	99.98
0.65963	99.98
0.67630	99.98
0.69297	99.98
0.70963	99.98
0.72630	99.98
0.74297	99.99
0.75963	99.98
0.77630	99.98
0.79297	99.98
0.80963	99.98
0.82630	99.98
0.84297	99.99
0.85963	99.98
0.87630	99.99
0.89297	99.98
0.90963	99.99
0.92630	99.99
0.94297	99.99
0.95963	99.98
0.97630	99.98
0.99297	99.99
1.00963	99.99
1.02630	99.98
1.04297	99.99
1.05963	99.99
1.07630	99.99
1.09297	99.98
1.10963	99.99
1.12630	99.99
1.14297	99.99
1.15963	99.99
1.17630	99.98
1.19297	99.98
1.20963	99.98
1.22630	99.98
1.24297	99.99
1.25963	99.98
1.27630	99.98
1.29297	99.98
1.30963	99.98
1.32630	99.98
1.34297	99.98
1.35963	99.98
1.37630	99.98
1.39297	99.98
1.40963	99.99
1.42630	99.99
1.44297	99.98
1.45963	99.99
1.47630	99.98
1.49297	99.98
1.50963	99.99
1.52630	99.99
1.54297	99.98
1.55963	99.98
1.57630	99.99
1.59297	99.99
1.60963	99.99
1.62630	99.98
1.64297	99.98
1.65963	99.98
1.67630	99.98
1.69297	99.98
1.70963	99.98
1.72630	99.98
1.74297	99.98
1.75963	99.98
1.77630	99.98
1.79297	99.98
1.80963	99.99
1.82630	99.98
1.84297	99.98
1.85963	99.98
1.87630	99.98
1.89297	99.98
1.90963	99.98
1.92630	99.98
1.94297	99.98
1.95963	99.98
1.97630	99.98
1.99297	99.98
2.00963	99.98
2.02630	99.97
2.04297	99.97
2.05963	99.97
2.07630	99.97
2.09297	99.97
2.10963	99.96
2.12630	99.97
2.14297	99.97
2.15963	99.97
2.17630	99.97
2.19297	99.97
2.20963	99.97
2.22630	99.96
2.24297	99.96
2.25963	99.96
2.27630	99.96
2.29297	99.96
2.30963	99.96
2.32630	99.96
2.34297	99.96
2.35963	99.96
2.37630	99.96
2.39297	99.96
2.40963	99.96
2.42630	99.96
2.44297	99.96
2.45963	99.96
2.47630	99.96
2.49297	99.97
2.50963	99.96
2.52630	99.97
2.54297	99.97
2.55963	99.97
2.57630	99.97
2.59297	99.97
2.60963	99.98
2.62630	99.98
2.64297	99.98
2.65963	99.97
2.67630	99.98
2.69297	99.98
2.70963	99.98
2.72630	99.98
2.74297	99.98
2.75963	99.99
2.77630	99.99
2.79297	99.99
2.80963	99.99
2.82630	99.99
2.84297	100.00
2.85963	100.00
2.87630	100.00
2.89297	100.00
2.90963	100.00
2.92630	100.00
2.94297	100.00
2.95963	100.01
2.97630	100.00
2.99297	100.01
3.00963	100.01
3.02630	100.01
3.04297	100.01
3.05963	100.01
3.07630	100.01
3.09297	100.01
3.10963	100.02
3.12630	100.01
3.14297	100.02
3.15963	100.01
3.17630	100.01
3.19297	100.02
3.20963	100.02
3.22630	100.02
3.24297	100.02
3.25963	100.02
3.27630	100.02
3.29297	100.02
3.30963	100.02
3.32630	100.02
3.34297	100.02
3.35963	100.03
3.37630	100.03
3.39297	100.03
3.40963	100.03
3.42630	100.03
3.44297	100.03
3.45963	100.03
3.47630	100.03
3.49297	100.03
3.50963	100.03
3.52630	100.03
3.54297	100.03
3.55963	100.03
3.57630	100.03
3.59297	100.03
3.60963	100.03
3.62630	100.03
3.64297	100.03
3.65963	100.03
3.67630	100.04
3.69297	100.04
3.70963	100.03
3.72630	100.04
3.74297	100.03
3.75963	100.04
3.77630	100.04
3.79297	100.03
3.80963	100.04
3.82630	100.04
3.84297	100.04
3.85963	100.04
3.87630	100.04
3.89297	100.04
3.90963	100.04
3.92630	100.04
3.94297	100.04
3.95963	100.04
3.97630	100.05
3.99297	100.05

[Status Trace (Carrier Gas Pressure)]
Interval(msec)	1000
# of Points	240
Start Time(min)	0.010
End Time(min)	3.993
Intensity Units	
Intensity Multiplier	1
R.Time (min)	Intensity
0.00963	58.00
0.02630	55.18
0.04297	57.41
0.05963	59.43
0.07630	59.19
0.09297	58.02
0.10963	57.99
0.12630	58.01
0.14297	58.01
0.15963	58.00
0.17630	58.00
0.19297	58.00
0.20963	58.00
0.22630	58.00
0.24297	58.00
0.25963	58.00
0.27630	58.00
0.29297	58.00
0.30963	58.00
0.32630	58.00
0.34297	58.00
0.35963	58.00
0.37630	58.00
0.39297	58.00
0.40963	58.00
0.42630	58.00
0.44297	58.00
0.45963	58.00
0.47630	58.00
0.49297	58.00
0.50963	58.00
0.52630	58.00
0.54297	58.00
0.55963	58.00
0.57630	58.00
0.59297	58.00
0.60963	58.00
0.62630	58.00
0.64297	58.00
0.65963	58.00
0.67630	58.00
0.69297	58.00
0.70963	58.00
0.72630	58.00
0.74297	58.00
0.75963	58.00
0.77630	58.00
0.79297	58.00
0.80963	58.00
0.82630	58.00
0.84297	58.00
0.85963	58.00
0.87630	58.00
0.89297	58.00
0.90963	58.00
0.92630	58.00
0.94297	58.00
0.95963	58.00
0.97630	58.00
0.99297	58.00
1.00963	58.00
1.02630	58.00
1.04297	58.00
1.05963	58.00
1.07630	58.00
1.09297	58.00
1.10963	58.00
1.12630	58.00
1.14297	58.00
1.15963	58.00
1.17630	58.00
1.19297	58.00
1.20963	58.00
1.22630	58.00
1.24297	58.00
1.25963	58.00
1.27630	58.00
1.29297	58.00
1.30963	58.00
1.32630	58.00
1.34297	58.00
1.35963	58.00
1.37630	58.00
1.39297	58.00
1.40963	58.00
1.42630	58.00
1.44297	58.00
1.45963	58.00
1.47630	58.00
1.49297	58.00
1.50963	58.00
1.52630	58.00
1.54297	58.00
1.55963	58.00
1.57630	58.00
1.59297	58.00
1.60963	58.00
1.62630	58.00
1.64297	58.00
1.65963	58.00
1.67630	58.01
1.69297	58.00
1.70963	58.00
1.72630	58.00
1.74297	58.00
1.75963	58.00
1.77630	58.00
1.79297	58.00
1.80963	58.00
1.82630	58.00
1.84297	58.00
1.85963	58.00
1.87630	58.00
1.89297	58.00
1.90963	58.00
1.92630	58.00
1.94297	58.00
1.95963	58.00
1.97630	58.00
1.99297	58.00
2.00963	58.00
2.02630	58.00
2.04297	58.00
2.05963	58.00
2.07630	58.00
2.09297	58.00
2.10963	58.00
2.12630	58.00
2.14297	58.00
2.15963	58.00
2.17630	58.00
2.19297	58.00
2.20963	58.00
2.22630	58.00
2.24297	58.00
2.25963	58.00
2.27630	58.00
2.29297	58.00
2.30963	58.00
2.32630	58.00
2.34297	58.00
2.35963	58.00
2.37630	57.99
2.39297	57.99
2.40963	57.99
2.42630	58.00
2.44297	58.00
2.45963	58.00
2.47630	58.00
2.49297	58.00
2.50963	57.99
2.52630	57.98
2.54297	58.00
2.55963	58.00
2.57630	58.00
2.59297	58.00
2.60963	58.00
2.62630	58.00
2.64297	58.00
2.65963	58.00
2.67630	58.00
2.69297	58.00
2.70963	58.00
2.72630	58.00
2.74297	58.00
2.75963	58.00
2.77630	58.00
2.79297	58.00
2.80963	58.00
2.82630	58.00
2.84297	58.00
2.85963	58.00
2.87630	58.00
2.89297	58.00
2.90963	58.00
2.92630	58.00
2.94297	58.00
2.95963	58.00
2.97630	58.00
2.99297	58.00
3.00963	58.00
3.02630	58.00
3.04297	58.00
3.05963	58.00
3.07630	58.00
3.09297	58.00
3.10963	58.00
3.12630	58.00
3.14297	58.00
3.15963	58.00
3.17630	58.00
3.19297	58.00
3.20963	58.00
3.22630	58.00
3.24297	58.00
3.25963	58.00
3.27630	58.00
3.29297	58.00
3.30963	58.00
3.32630	58.00
3.34297	58.00
3.35963	58.00
3.37630	58.00
3.39297	58.00
3.40963	58.00
3.42630	58.00
3.44297	58.00
3.45963	58.00
3.47630	58.00
3.49297	58.00
3.50963	58.00
3.52630	58.00
3.54297	58.00
3.55963	58.00
3.57630	58.00
3.59297	58.00
3.60963	58.00
3.62630	58.00
3.64297	58.00
3.65963	58.00
3.67630	58.00
3.69297	58.00
3.70963	58.00
3.72630	58.00
3.74297	58.00
3.75963	58.00
3.77630	58.00
3.79297	58.00
3.80963	58.00
3.82630	58.00
3.84297	58.00
3.85963	58.00
3.87630	58.00
3.89297	58.00
3.90963	58.00
3.92630	58.00
3.94297	58.00
3.95963	58.00
3.97630	58.00
3.99297	58.00

[Status Trace (Carrier Gas Flow)]
Interval(msec)	1000
# of Points	240
Start Time(min)	0.010
End Time(min)	3.993
Intensity Units	
Intensity Multiplier	1
R.Time (min)	Intensity
0.00963	34.52
0.02630	34.54
0.04297	34.54
0.05963	34.55
0.07630	34.50
0.09297	34.52
0.10963	34.52
0.12630	34.52
0.14297	34.52
0.15963	34.52
0.17630	34.52
0.19297	34.52
0.20963	34.52
0.22630	34.52
0.24297	34.52
0.25963	34.52
0.27630	34.52
0.29297	34.52
0.30963	34.52
0.32630	34.52
0.34297	34.52
0.35963	34.52
0.37630	34.52
0.39297	34.52
0.40963	34.52
0.42630	34.51
0.44297	34.52
0.45963	34.52
0.47630	34.52
0.49297	34.52
0.50963	34.52
0.52630	34.52
0.54297	34.52
0.55963	34.52
0.57630	34.52
0.59297	34.52
0.60963	34.52
0.62630	34.52
0.64297	34.52
0.65963	34.52
0.67630	34.52
0.69297	34.52
0.70963	34.52
0.72630	34.52
0.74297	34.52
0.75963	34.52
0.77630	34.52
0.79297	34.52
0.80963	34.52
0.82630	34.52
0.84297	34.52
0.85963	34.52
0.87630	34.52
0.89297	34.52
0.90963	34.52
0.92630	34.52
0.94297	34.52
0.95963	34.52
0.97630	34.52
0.99297	34.52
1.00963	34.52
1.02630	34.52
1.04297	34.52
1.05963	34.52
1.07630	34.52
1.09297	34.51
1.10963	34.52
1.12630	34.52
1.14297	34.51
1.15963	34.53
1.17630	34.51
1.19297	34.51
1.20963	34.52
1.22630	34.53
1.24297	34.51
1.25963	34.52
1.27630	34.52
1.29297	34.53
1.30963	34.52
1.32630	34.52
1.34297	34.51
1.35963	34.51
1.37630	34.52
1.39297	34.52
1.40963	34.53
1.42630	34.52
1.44297	34.52
1.45963	34.52
1.47630	34.52
1.49297	34.52
1.50963	34.52
1.52630	34.52
1.54297	34.52
1.55963	34.52
1.57630	34.52
1.59297	34.52
1.60963	34.52
1.62630	34.52
1.64297	34.52
1.65963	34.51
1.67630	34.52
1.69297	34.52
1.70963	34.52
1.72630	34.52
1.74297	34.51
1.75963	34.52
1.77630	34.52
1.79297	34.52
1.80963	34.52
1.82630	34.52
1.84297	34.52
1.85963	34.51
1.87630	34.52
1.89297	34.52
1.90963	34.52
1.92630	34.52
1.94297	34.52
1.95963	34.52
1.97630	34.52
1.99297	34.52
2.00963	34.52
2.02630	34.52
2.04297	34.51
2.05963	34.52
2.07630	34.52
2.09297	34.52
2.10963	34.52
2.12630	34.52
2.14297	34.52
2.15963	34.52
2.17630	34.51
2.19297	34.52
2.20963	34.52
2.22630	34.52
2.24297	34.52
2.25963	34.52
2.27630	34.52
2.29297	34.52
2.30963	34.52
2.32630	34.52
2.34297	34.52
2.35963	34.52
2.37630	34.52
2.39297	34.52
2.40963	34.52
2.42630	34.52
2.44297	34.52
2.45963	34.52
2.47630	34.52
2.49297	34.52
2.50963	34.50
2.52630	34.52
2.54297	34.53
2.55963	34.52
2.57630	34.52
2.59297	34.52
2.60963	34.52
2.62630	34.51
2.64297	34.51
2.65963	34.52
2.67630	34.52
2.69297	34.52
2.70963	34.51
2.72630	34.53
2.74297	34.52
2.75963	34.52
2.77630	34.52
2.79297	34.52
2.80963	34.52
2.82630	34.52
2.84297	34.52
2.85963	34.52
2.87630	34.52
2.89297	34.52
2.90963	34.52
2.92630	34.52
2.94297	34.52
2.95963	34.52
2.97630	34.52
2.99297	34.52
3.00963	34.52
3.02630	34.52
3.04297	34.52
3.05963	34.52
3.07630	34.52
3.09297	34.52
3.10963	34.52
3.12630	34.52
3.14297	34.52
3.15963	34.52
3.17630	34.52
3.19297	34.52
3.20963	34.52
3.22630	34.52
3.24297	34.52
3.25963	34.51
3.27630	34.52
3.29297	34.52
3.30963	34.52
3.32630	34.52
3.34297	34.52
3.35963	34.52
3.37630	34.52
3.39297	34.52
3.40963	34.52
3.42630	34.52
3.44297	34.52
3.45963	34.52
3.47630	34.52
3.49297	34.52
3.50963	34.52
3.52630	34.52
3.54297	34.52
3.55963	34.52
3.57630	34.52
3.59297	34.52
3.60963	34.52
3.62630	34.52
3.64297	34.52
3.65963	34.52
3.67630	34.51
3.69297	34.52
3.70963	34.52
3.72630	34.52
3.74297	34.52
3.75963	34.52
3.77630	34.52
3.79297	34.52
3.80963	34.52
3.82630	34.52
3.84297	34.52
3.85963	34.52
3.87630	34.52
3.89297	34.52
3.90963	34.52
3.92630	34.52
3.94297	34.52
3.95963	34.52
3.97630	34.52
3.99297	34.52

[Status Trace (Column Flow)]
Interval(msec)	1000
# of Points	240
Start Time(min)	0.010
End Time(min)	3.993
Intensity Units	
Intensity Multiplier	1
R.Time (min)	Intensity
0.00963	5.52
0.02630	5.20
0.04297	5.46
0.05963	5.69
0.07630	5.66
0.09297	5.53
0.10963	5.52
0.12630	5.53
0.14297	5.53
0.15963	5.53
0.17630	5.53
0.19297	5.53
0.20963	5.53
0.22630	5.53
0.24297	5.52
0.25963	5.52
0.27630	5.52
0.29297	5.52
0.30963	5.52
0.32630	5.52
0.34297	5.52
0.35963	5.52
0.37630	5.52
0.39297	5.52
0.40963	5.53
0.42630	5.53
0.44297	5.52
0.45963	5.52
0.47630	5.52
0.49297	5.52
0.50963	5.52
0.52630	5.52
0.54297	5.52
0.55963	5.52
0.57630	5.52
0.59297	5.53
0.60963	5.53
0.62630	5.53
0.64297	5.53
0.65963	5.52
0.67630	5.52
0.69297	5.52
0.70963	5.53
0.72630	5.53
0.74297	5.53
0.75963	5.53
0.77630	5.53
0.79297	5.53
0.80963	5.53
0.82630	5.52
0.84297	5.52
0.85963	5.52
0.87630	5.52
0.89297	5.52
0.90963	5.52
0.92630	5.52
0.94297	5.52
0.95963	5.52
0.97630	5.53
0.99297	5.52
1.00963	5.52
1.02630	5.52
1.04297	5.53
1.05963	5.52
1.07630	5.52
1.09297	5.52
1.10963	5.53
1.12630	5.53
1.14297	5.53
1.15963	5.53
1.17630	5.53
1.19297	5.53
1.20963	5.53
1.22630	5.53
1.24297	5.53
1.25963	5.53
1.27630	5.53
1.29297	5.53
1.30963	5.53
1.32630	5.53
1.34297	5.53
1.35963	5.53
1.37630	5.53
1.39297	5.53
1.40963	5.53
1.42630	5.53
1.44297	5.52
1.45963	5.52
1.47630	5.52
1.49297	5.52
1.50963	5.53
1.52630	5.53
1.54297	5.53
1.55963	5.53
1.57630	5.53
1.59297	5.53
1.60963	5.52
1.62630	5.52
1.64297	5.51
1.65963	5.50
1.67630	5.49
1.69297	5.48
1.70963	5.47
1.72630	5.46
1.74297	5.45
1.75963	5.44
1.77630	5.43
1.79297	5.42
1.80963	5.41
1.82630	5.40
1.84297	5.39
1.85963	5.38
1.87630	5.37
1.89297	5.36
1.90963	5.35
1.92630	5.34
1.94297	5.33
1.95963	5.32
1.97630	5.31
1.99297	5.30
2.00963	5.29
2.02630	5.28
2.04297	5.27
2.05963	5.26
2.07630	5.25
2.09297	5.24
2.10963	5.24
2.12630	5.23
2.14297	5.22
2.15963	5.21
2.17630	5.20
2.19297	5.19
2.20963	5.18
2.22630	5.17
2.24297	5.16
2.25963	5.15
2.27630	5.14
2.29297	5.13
2.30963	5.12
2.32630	5.11
2.34297	5.10
2.35963	5.10
2.37630	5.09
2.39297	5.09
2.40963	5.09
2.42630	5.09
2.44297	5.09
2.45963	5.09
2.47630	5.09
2.49297	5.09
2.50963	5.09
2.52630	5.09
2.54297	5.09
2.55963	5.09
2.57630	5.09
2.59297	5.09
2.60963	5.09
2.62630	5.09
2.64297	5.09
2.65963	5.09
2.67630	5.09
2.69297	5.09
2.70963	5.09
2.72630	5.09
2.74297	5.09
2.75963	5.09
2.77630	5.09
2.79297	5.09
2.80963	5.09
2.82630	5.08
2.84297	5.09
2.85963	5.08
2.87630	5.08
2.89297	5.08
2.90963	5.08
2.92630	5.08
2.94297	5.08
2.95963	5.08
2.97630	5.08
2.99297	5.08
3.00963	5.08
3.02630	5.08
3.04297	5.08
3.05963	5.08
3.07630	5.08
3.09297	5.08
3.10963	5.08
3.12630	5.08
3.14297	5.08
3.15963	5.08
3.17630	5.08
3.19297	5.08
3.20963	5.08
3.22630	5.08
3.24297	5.08
3.25963	5.08
3.27630	5.08
3.29297	5.08
3.30963	5.08
3.32630	5.08
3.34297	5.08
3.35963	5.08
3.37630	5.08
3.39297	5.08
3.40963	5.08
3.42630	5.08
3.44297	5.08
3.45963	5.08
3.47630	5.08
3.49297	5.08
3.50963	5.08
3.52630	5.08
3.54297	5.08
3.55963	5.08
3.57630	5.08
3.59297	5.08
3.60963	5.08
3.62630	5.08
3.64297	5.08
3.65963	5.08
3.67630	5.08
3.69297	5.08
3.70963	5.08
3.72630	5.08
3.74297	5.08
3.75963	5.08
3.77630	5.08
3.79297	5.08
3.80963	5.08
3.82630	5.08
3.84297	5.08
3.85963	5.08
3.87630	5.08
3.89297	5.08
3.90963	5.08
3.92630	5.08
3.94297	5.08
3.95963	5.08
3.97630	5.08
3.99297	5.08

[Status Trace (Linear Velocity)]
Interval(msec)	1000
# of Points	240
Start Time(min)	0.010
End Time(min)	3.993
Intensity Units	
Intensity Multiplier	1
R.Time (min)	Intensity
0.00963	39.02
0.02630	37.16
0.04297	38.63
0.05963	39.95
0.07630	39.79
0.09297	39.03
0.10963	39.01
0.12630	39.02
0.14297	39.02
0.15963	39.02
0.17630	39.02
0.19297	39.02
0.20963	39.02
0.22630	39.02
0.24297	39.02
0.25963	39.02
0.27630	39.02
0.29297	39.01
0.30963	39.01
0.32630	39.01
0.34297	39.01
0.35963	39.01
0.37630	39.02
0.39297	39.02
0.40963	39.02
0.42630	39.02
0.44297	39.02
0.45963	39.02
0.47630	39.02
0.49297	39.01
0.50963	39.02
0.52630	39.02
0.54297	39.02
0.55963	39.02
0.57630	39.02
0.59297	39.02
0.60963	39.02
0.62630	39.02
0.64297	39.02
0.65963	39.02
0.67630	39.02
0.69297	39.02
0.70963	39.02
0.72630	39.02
0.74297	39.02
0.75963	39.02
0.77630	39.02
0.79297	39.02
0.80963	39.02
0.82630	39.02
0.84297	39.02
0.85963	39.02
0.87630	39.01
0.89297	39.01
0.90963	39.02
0.92630	39.02
0.94297	39.02
0.95963	39.02
0.97630	39.02
0.99297	39.02
1.00963	39.02
1.02630	39.02
1.04297	39.02
1.05963	39.02
1.07630	39.02
1.09297	39.02
1.10963	39.02
1.12630	39.02
1.14297	39.02
1.15963	39.02
1.17630	39.02
1.19297	39.02
1.20963	39.02
1.22630	39.02
1.24297	39.02
1.25963	39.02
1.27630	39.02
1.29297	39.02
1.30963	39.02
1.32630	39.02
1.34297	39.02
1.35963	39.02
1.37630	39.02
1.39297	39.02
1.40963	39.02
1.42630	39.02
1.44297	39.02
1.45963	39.02
1.47630	39.02
1.49297	39.02
1.50963	39.02
1.52630	39.02
1.54297	39.02
1.55963	39.02
1.57630	39.02
1.59297	39.02
1.60963	39.01
1.62630	39.00
1.64297	38.98
1.65963	38.96
1.67630	38.93
1.69297	38.89
1.70963	38.85
1.72630	38.82
1.74297	38.79
1.75963	38.76
1.77630	38.73
1.79297	38.70
1.80963	38.67
1.82630	38.63
1.84297	38.60
1.85963	38.57
1.87630	38.54
1.89297	38.51
1.90963	38.48
1.92630	38.45
1.94297	38.42
1.95963	38.39
1.97630	38.36
1.99297	38.33
2.00963	38.30
2.02630	38.27
2.04297	38.24
2.05963	38.21
2.07630	38.18
2.09297	38.15
2.10963	38.12
2.12630	38.09
2.14297	38.06
2.15963	38.03
2.17630	38.00
2.19297	37.97
2.20963	37.94
2.22630	37.91
2.24297	37.88
2.25963	37.85
2.27630	37.82
2.29297	37.80
2.30963	37.76
2.32630	37.73
2.34297	37.70
2.35963	37.68
2.37630	37.67
2.39297	37.66
2.40963	37.66
2.42630	37.67
2.44297	37.67
2.45963	37.66
2.47630	37.67
2.49297	37.66
2.50963	37.66
2.52630	37.65
2.54297	37.66
2.55963	37.66
2.57630	37.66
2.59297	37.66
2.60963	37.65
2.62630	37.65
2.64297	37.65
2.65963	37.65
2.67630	37.65
2.69297	37.65
2.70963	37.65
2.72630	37.65
2.74297	37.64
2.75963	37.64
2.77630	37.65
2.79297	37.65
2.80963	37.65
2.82630	37.64
2.84297	37.64
2.85963	37.64
2.87630	37.64
2.89297	37.64
2.90963	37.64
2.92630	37.64
2.94297	37.64
2.95963	37.64
2.97630	37.64
2.99297	37.64
3.00963	37.64
3.02630	37.63
3.04297	37.63
3.05963	37.63
3.07630	37.63
3.09297	37.63
3.10963	37.63
3.12630	37.63
3.14297	37.63
3.15963	37.63
3.17630	37.63
3.19297	37.63
3.20963	37.63
3.22630	37.63
3.24297	37.63
3.25963	37.63
3.27630	37.63
3.29297	37.63
3.30963	37.63
3.32630	37.63
3.34297	37.63
3.35963	37.63
3.37630	37.63
3.39297	37.62
3.40963	37.62
3.42630	37.62
3.44297	37.62
3.45963	37.62
3.47630	37.63
3.49297	37.63
3.50963	37.63
3.52630	37.63
3.54297	37.63
3.55963	37.63
3.57630	37.63
3.59297	37.63
3.60963	37.63
3.62630	37.63
3.64297	37.63
3.65963	37.63
3.67630	37.63
3.69297	37.63
3.70963	37.63
3.72630	37.63
3.74297	37.63
3.75963	37.63
3.77630	37.63
3.79297	37.63
3.80963	37.63
3.82630	37.63
3.84297	37.63
3.85963	37.63
3.87630	37.63
3.89297	37.63
3.90963	37.63
3.92630	37.63
3.94297	37.63
3.95963	37.63
3.97630	37.63
3.99297	37.63

