[Header]
Application Name	LabSolutions
Version	5.110
Data File Name	C:\Users\User\Desktop\GC Analyses\Jack\Nachusa Grasslands Sampling\T3 Timepoint July 12th\T3_07122022_007.gcd
Output Date	3/14/2023
Output Time	3:43:30 PM

[File Information]
Type	Data File
Generated	3/13/2023 3:08:44 PM
Generated by	System Administrator
Modified	3/13/2023 3:15:18 PM
Modified by	System Administrator

[Sample Information]
Operator Name	System Administrator
Acquired	3/13/2023 3:11:18 PM
Sample Type	0:Unknown
Level	0
Sample Name	007
Sample ID	007
ISTD Amount1	1
ISTD Amount2	1
ISTD Amount3	1
ISTD Amount4	1
ISTD Amount5	1
ISTD Amount6	1
ISTD Amount7	1
ISTD Amount8	1
ISTD Amount9	1
ISTD Amount10	1
ISTD Amount11	1
ISTD Amount12	1
ISTD Amount13	1
ISTD Amount14	1
ISTD Amount15	1
ISTD Amount16	1
ISTD Amount17	1
ISTD Amount18	1
ISTD Amount19	1
ISTD Amount20	1
ISTD Amount21	1
ISTD Amount22	1
ISTD Amount23	1
ISTD Amount24	1
ISTD Amount25	1
ISTD Amount26	1
ISTD Amount27	1
ISTD Amount28	1
ISTD Amount29	1
ISTD Amount30	1
ISTD Amount31	1
ISTD Amount32	1
Sample Amount	1
Dilution Factor	1
Vial#	6
Injection Volume	1
Injection Count	1
Bar Code	

[Original Files]
Data File	C:\Users\User\Desktop\GC Analyses\Jack\Nachusa Grasslands Sampling\T3 Timepoint July 12th\T3_07122022_007.gcd
Method File	C:\LabSolutions\Data\GHG_4min_2022\ghg3_togas_w_acet_4 min_new_int.gcm
Batch File	C:\LabSolutions\Data\AutoSamplerTesting\T3_07122022.gcb
Report Format File	c:\LabSolutions\System\DEFAULT.lsr

[File Description]


[Configuration]
Instrument Name	C0B7VH3-Instrument1
Instrument #	1
Line #	1
# of Detectors	3
Detector ID	DET#1	DET#2	DET#3
Detector Name	FID	PTCD	ECD
# of Channels	1	1	1

[Peak Table(Ch1)]
# of Peaks	3
Peak#	R.Time	I.Time	F.Time	Area	Height	A/H	Conc.	Mark	ID#	Name	k'	Plate #	Plate Ht.	Tailing	Resolution	Sep.Factor	Area Ratio	Height Ratio	Conc. %	Norm Conc.
1	1.476	1.439	1.527	23675	11575	2.045	167.145	   	1	CO	0.000	9630	15.576	1.183	0.000	0.000	0	0	21.128	21.128
2	1.571	1.538	1.608	3548	1886	1.881	68.605	   	2	CH4	0.065	12269	12.226	1.079	1.631	0.000	0	0	8.672	8.672
3	2.000	1.952	2.315	2212738	1070901	2.066	555.337	   	3	CO2	0.355	17650	8.499	1.189	7.336	5.500	0	0	70.199	70.199

[Peak Table(Ch2)]
# of Peaks	0

[Peak Table(Ch3)]
# of Peaks	6
Peak#	R.Time	I.Time	F.Time	Area	Height	A/H	Conc.	Mark	ID#	Name	k'	Plate #	Plate Ht.	Tailing	Resolution	Sep.Factor	Area Ratio	Height Ratio	Conc. %	Norm Conc.
1	0.724	0.640	0.838	87	14	6.152	0.000	   			0.000	232	647.470	1.173	0.000	0.000	0	0	0.000	0.000
2	2.462	2.337	2.506	1420	464	3.062	0.000	   			2.401	10891	13.773	0.000	12.212	0.000	0	0	0.000	0.000
3	2.528	2.506	2.579	838	269	3.120	0.000	 V 			2.492	4438	33.796	0.000	0.536	1.038	0	0	0.000	0.000
4	2.605	2.579	2.675	437	135	3.237	0.000	 V 			2.598	3064	48.958	0.000	0.453	1.043	0	0	0.000	0.000
5	2.880	2.693	3.115	17974	4697	3.827	0.459	   	1	N2O	2.978	13387	11.205	1.531	1.911	1.146	0	0	100.000	100.000
6	3.404	3.258	3.995	16693	689	24.240	0.000	   	2	SF6	3.702	326	459.560	2.511	1.229	1.243	0	0	0.000	0.000

[Compound Results(Ch1)]
# of IDs	6
ID#	Name	R.Time	Area	Height	Conc.	Curve	3rd	2nd	1st	Constant	Area Ratio	Height Ratio	Conc. %	Norm Conc.
1	CO	1.476	23675	11575	167.145	Linear	0.000000e+00	0.000000e+00	1.416423e+002	0.000000e+00	0	0	21.128	21.128
2	CH4	1.571	3548	1886	68.605	Linear	0.000000e+00	0.000000e+00	5.171738e+001	0.000000e+00	0	0	8.672	8.672
3	CO2	2.000	2212738	1070901	555.337	Linear	0.000000e+00	0.000000e+00	3.984494e+003	0.000000e+00	0	0	70.199	70.199
4	Ethylene	0.000	0	0	0.000	Linear	0.000000e+00	0.000000e+00	0.000000e+00	0.000000e+00	0	0	0.000	0.000
5	Acetylene	0.000	0	0	0.000	Linear	0.000000e+00	0.000000e+00	0.000000e+00	0.000000e+00	0	0	0.000	0.000
6	Ethane	0.000	0	0	0.000	Linear	0.000000e+00	0.000000e+00	0.000000e+00	0.000000e+00	0	0	0.000	0.000

[Compound Results(Ch2)]
# of IDs	5
ID#	Name	R.Time	Area	Height	Conc.	Curve	3rd	2nd	1st	Constant	Area Ratio	Height Ratio	Conc. %	Norm Conc.
1	Hydrogen	0.000	0	0	0.000	Linear	0.000000e+00	0.000000e+00	0.000000e+00	0.000000e+00	0	0	0.000	0.000
2	Oxygen	0.000	0	0	0.000	Linear	0.000000e+00	0.000000e+00	0.000000e+00	0.000000e+00	0	0	0.000	0.000
3	Nitrogen	0.000	0	0	0.000	Linear	0.000000e+00	0.000000e+00	0.000000e+00	0.000000e+00	0	0	0.000	0.000
4	Methane	0.000	0	0	0.000	Linear	0.000000e+00	0.000000e+00	0.000000e+00	0.000000e+00	0	0	0.000	0.000
5	Carbon Monoxide	0.000	0	0	0.000	Linear	0.000000e+00	0.000000e+00	0.000000e+00	0.000000e+00	0	0	0.000	0.000

[Compound Results(Ch3)]
# of IDs	2
ID#	Name	R.Time	Area	Height	Conc.	Curve	3rd	2nd	1st	Constant	Area Ratio	Height Ratio	Conc. %	Norm Conc.
1	N2O	2.880	17974	4697	0.459	Linear	0.000000e+00	0.000000e+00	3.915173e+004	0.000000e+00	0	0	100.000	100.000
2	SF6	3.404	16693	689	0.000	Linear	0.000000e+00	0.000000e+00	0.000000e+00	0.000000e+00	0	0	0.000	0.000

[Group Results(Ch1)]
# of Groups	0

[Group Results(Ch2)]
# of Groups	0

[Group Results(Ch3)]
# of Groups	0

[Chromatogram (Ch1)]
Interval(msec)	220
# of Points	1091
Start Time(min)	0.002
End Time(min)	3.998
R.Time (min)	Intensity
0.00167	-35
0.00533	-33
0.00900	-28
0.01267	-26
0.01633	-24
0.02000	-24
0.02367	-21
0.02733	-17
0.03100	-14
0.03467	-12
0.03833	-12
0.04200	-14
0.04567	-15
0.04933	-13
0.05300	-13
0.05667	-13
0.06033	-9
0.06400	-2
0.06767	-2
0.07133	-6
0.07500	-6
0.07867	-6
0.08233	-1
0.08600	4
0.08967	6
0.09333	6
0.09700	4
0.10067	-1
0.10433	-7
0.10800	-13
0.11167	-20
0.11533	-26
0.11900	-26
0.12267	-22
0.12633	-15
0.13000	-13
0.13367	-17
0.13733	-19
0.14100	-20
0.14467	-21
0.14833	-22
0.15200	-24
0.15567	-22
0.15933	-17
0.16300	-11
0.16667	-3
0.17033	6
0.17400	5
0.17767	-4
0.18133	-14
0.18500	-20
0.18867	-19
0.19233	-17
0.19600	-13
0.19967	-10
0.20333	-11
0.20700	-15
0.21067	-16
0.21433	-10
0.21800	-5
0.22167	2
0.22533	11
0.22900	14
0.23267	9
0.23633	1
0.24000	-6
0.24367	-14
0.24733	-19
0.25100	-23
0.25467	-25
0.25833	-24
0.26200	-18
0.26567	-9
0.26933	-5
0.27300	-10
0.27667	-17
0.28033	-21
0.28400	-24
0.28767	-26
0.29133	-29
0.29500	-29
0.29867	-23
0.30233	-18
0.30600	-17
0.30967	-15
0.31333	-12
0.31700	-4
0.32067	2
0.32433	6
0.32800	9
0.33167	12
0.33533	11
0.33900	7
0.34267	-0
0.34633	-7
0.35000	-4
0.35367	2
0.35733	7
0.36100	9
0.36467	11
0.36833	17
0.37200	25
0.37567	32
0.37933	39
0.38300	48
0.38667	57
0.39033	57
0.39400	52
0.39767	40
0.40133	29
0.40500	20
0.40867	15
0.41233	12
0.41600	7
0.41967	-1
0.42333	-12
0.42700	-15
0.43067	-12
0.43433	-8
0.43800	-5
0.44167	-1
0.44533	5
0.44900	9
0.45267	9
0.45633	10
0.46000	10
0.46367	6
0.46733	-0
0.47100	-3
0.47467	-3
0.47833	-2
0.48200	2
0.48567	6
0.48933	6
0.49300	-4
0.49667	-16
0.50033	-21
0.50400	-21
0.50767	-23
0.51133	-23
0.51500	-21
0.51867	-20
0.52233	-26
0.52600	-37
0.52967	-39
0.53333	-37
0.53700	-31
0.54067	-20
0.54433	-8
0.54800	-2
0.55167	-4
0.55533	-12
0.55900	-21
0.56267	-29
0.56633	-33
0.57000	-30
0.57367	-25
0.57733	-28
0.58100	-37
0.58467	-45
0.58833	-51
0.59200	-53
0.59567	-53
0.59933	-52
0.60300	-53
0.60667	-57
0.61033	-61
0.61400	-63
0.61767	-63
0.62133	-63
0.62500	-61
0.62867	-63
0.63233	-59
0.63600	-51
0.63967	-46
0.64333	-45
0.64700	-40
0.65067	-36
0.65433	-36
0.65800	-34
0.66167	-33
0.66533	-28
0.66900	-24
0.67267	-24
0.67633	-23
0.68000	-20
0.68367	-15
0.68733	-10
0.69100	-4
0.69467	1
0.69833	2
0.70200	0
0.70567	-5
0.70933	-13
0.71300	-17
0.71667	-18
0.72033	-19
0.72400	-23
0.72767	-27
0.73133	-29
0.73500	-30
0.73867	-29
0.74233	-26
0.74600	-21
0.74967	-18
0.75333	-11
0.75700	-5
0.76067	-5
0.76433	-6
0.76800	-5
0.77167	-3
0.77533	1
0.77900	3
0.78267	-0
0.78633	-5
0.79000	-10
0.79367	-22
0.79733	-34
0.80100	-43
0.80467	-47
0.80833	-47
0.81200	-44
0.81567	-39
0.81933	-29
0.82300	-20
0.82667	-18
0.83033	-21
0.83400	-25
0.83767	-29
0.84133	-31
0.84500	-29
0.84867	-27
0.85233	-29
0.85600	-33
0.85967	-34
0.86333	-35
0.86700	-40
0.87067	-42
0.87433	-42
0.87800	-48
0.88167	-41
0.88533	-33
0.88900	-30
0.89267	-30
0.89633	-29
0.90000	-28
0.90367	-28
0.90733	-33
0.91100	-40
0.91467	-46
0.91833	-46
0.92200	-41
0.92567	-34
0.92933	-26
0.93300	-17
0.93667	-13
0.94033	-16
0.94400	-22
0.94767	-28
0.95133	-34
0.95500	-38
0.95867	-42
0.96233	-42
0.96600	-41
0.96967	-40
0.97333	-43
0.97700	-45
0.98067	-43
0.98433	-40
0.98800	-37
0.99167	-39
0.99533	-41
0.99900	-42
1.00267	-44
1.00633	-45
1.01000	-43
1.01367	-39
1.01733	-29
1.02100	-21
1.02467	-15
1.02833	-13
1.03200	-17
1.03567	-21
1.03933	-20
1.04300	-22
1.04667	-29
1.05033	-39
1.05400	-50
1.05767	-57
1.06133	-63
1.06500	-63
1.06867	-62
1.07233	-68
1.07600	-74
1.07967	-74
1.08333	-67
1.08700	-59
1.09067	-54
1.09433	-51
1.09800	-48
1.10167	-47
1.10533	-46
1.10900	-44
1.11267	-37
1.11633	-31
1.12000	-31
1.12367	-38
1.12733	-45
1.13100	-50
1.13467	-51
1.13833	-52
1.14200	-55
1.14567	-54
1.14933	-48
1.15300	-45
1.15667	-44
1.16033	-43
1.16400	-42
1.16767	-42
1.17133	-39
1.17500	-31
1.17867	-25
1.18233	-28
1.18600	-35
1.18967	-44
1.19333	-49
1.19700	-51
1.20067	-52
1.20433	-53
1.20800	-56
1.21167	-59
1.21533	-58
1.21900	-55
1.22267	-55
1.22633	-57
1.23000	-61
1.23367	-60
1.23733	-55
1.24100	-53
1.24467	-54
1.24833	-57
1.25200	-57
1.25567	-57
1.25933	-56
1.26300	-54
1.26667	-52
1.27033	-48
1.27400	-41
1.27767	-37
1.28133	-35
1.28500	-36
1.28867	-39
1.29233	-39
1.29600	-34
1.29967	-37
1.30333	-42
1.30700	-44
1.31067	-46
1.31433	-51
1.31800	-55
1.32167	-58
1.32533	-60
1.32900	-60
1.33267	-56
1.33633	-49
1.34000	-41
1.34367	-36
1.34733	-36
1.35100	-36
1.35467	-38
1.35833	-40
1.36200	-40
1.36567	-40
1.36933	-41
1.37300	-40
1.37667	-40
1.38033	-43
1.38400	-44
1.38767	-46
1.39133	-45
1.39500	-48
1.39867	-53
1.40233	-66
1.40600	-78
1.40967	-81
1.41333	-76
1.41700	-71
1.42067	-68
1.42433	-69
1.42800	-70
1.43167	-70
1.43533	-65
1.43900	-52
1.44267	-13
1.44633	168
1.45000	761
1.45367	1927
1.45733	3721
1.46100	5883
1.46467	7964
1.46833	9650
1.47200	10805
1.47567	11338
1.47933	11151
1.48300	10210
1.48667	8678
1.49033	6855
1.49400	5054
1.49767	3491
1.50133	2252
1.50500	1330
1.50867	673
1.51233	219
1.51600	-87
1.51967	-290
1.52333	-419
1.52700	-495
1.53067	-535
1.53433	-557
1.53800	-560
1.54167	-525
1.54533	-403
1.54900	-148
1.55267	218
1.55633	619
1.56000	978
1.56367	1250
1.56733	1418
1.57100	1462
1.57467	1364
1.57833	1137
1.58200	841
1.58567	540
1.58933	280
1.59300	78
1.59667	-70
1.60033	-172
1.60400	-237
1.60767	-273
1.61133	-294
1.61500	-306
1.61867	-316
1.62233	-321
1.62600	-324
1.62967	-328
1.63333	-332
1.63700	-334
1.64067	-331
1.64433	-325
1.64800	-318
1.65167	-308
1.65533	-306
1.65900	-306
1.66267	-306
1.66633	-304
1.67000	-302
1.67367	-297
1.67733	-292
1.68100	-286
1.68467	-279
1.68833	-275
1.69200	-273
1.69567	-268
1.69933	-267
1.70300	-269
1.70667	-269
1.71033	-263
1.71400	-257
1.71767	-254
1.72133	-261
1.72500	-268
1.72867	-269
1.73233	-269
1.73600	-267
1.73967	-264
1.74333	-263
1.74700	-262
1.75067	-257
1.75433	-252
1.75800	-253
1.76167	-255
1.76533	-256
1.76900	-254
1.77267	-250
1.77633	-249
1.78000	-248
1.78367	-246
1.78733	-245
1.79100	-244
1.79467	-243
1.79833	-237
1.80200	-236
1.80567	-236
1.80933	-234
1.81300	-235
1.81667	-237
1.82033	-228
1.82400	-218
1.82767	-214
1.83133	-211
1.83500	-210
1.83867	-213
1.84233	-219
1.84600	-226
1.84967	-234
1.85333	-238
1.85700	-240
1.86067	-239
1.86433	-233
1.86800	-227
1.87167	-221
1.87533	-219
1.87900	-220
1.88267	-221
1.88633	-220
1.89000	-219
1.89367	-219
1.89733	-220
1.90100	-220
1.90467	-218
1.90833	-216
1.91200	-213
1.91567	-208
1.91933	-208
1.92300	-210
1.92667	-212
1.93033	-214
1.93400	-213
1.93767	-211
1.94133	-209
1.94500	-212
1.94867	-213
1.95233	-201
1.95600	-128
1.95967	342
1.96333	2773
1.96700	12396
1.97067	41591
1.97433	109960
1.97800	234402
1.98167	412741
1.98533	619045
1.98900	816046
1.99267	970255
1.99633	1058653
2.00000	1070739
2.00367	1008820
2.00733	888574
2.01100	735190
2.01467	575464
2.01833	430051
2.02200	309996
2.02567	217750
2.02933	150463
2.03300	103138
2.03667	70657
2.04033	48698
2.04400	33966
2.04767	24096
2.05133	17459
2.05500	12959
2.05867	9866
2.06233	7706
2.06600	6173
2.06967	5061
2.07333	4232
2.07700	3597
2.08067	3102
2.08433	2707
2.08800	2391
2.09167	2137
2.09533	1924
2.09900	1743
2.10267	1590
2.10633	1458
2.11000	1342
2.11367	1235
2.11733	1136
2.12100	1049
2.12467	972
2.12833	904
2.13200	840
2.13567	782
2.13933	734
2.14300	697
2.14667	662
2.15033	627
2.15400	594
2.15767	564
2.16133	537
2.16500	511
2.16867	485
2.17233	460
2.17600	443
2.17967	430
2.18333	420
2.18700	410
2.19067	397
2.19433	379
2.19800	361
2.20167	346
2.20533	328
2.20900	312
2.21267	297
2.21633	279
2.22000	262
2.22367	247
2.22733	234
2.23100	224
2.23467	216
2.23833	209
2.24200	200
2.24567	193
2.24933	196
2.25300	204
2.25667	202
2.26033	190
2.26400	174
2.26767	158
2.27133	144
2.27500	136
2.27867	132
2.28233	125
2.28600	118
2.28967	116
2.29333	119
2.29700	119
2.30067	111
2.30433	102
2.30800	97
2.31167	96
2.31533	94
2.31900	91
2.32267	88
2.32633	86
2.33000	84
2.33367	82
2.33733	83
2.34100	81
2.34467	77
2.34833	77
2.35200	80
2.35567	84
2.35933	87
2.36300	84
2.36667	77
2.37033	70
2.37400	64
2.37767	58
2.38133	51
2.38500	50
2.38867	52
2.39233	54
2.39600	56
2.39967	59
2.40333	55
2.40700	48
2.41067	39
2.41433	33
2.41800	31
2.42167	31
2.42533	27
2.42900	21
2.43267	20
2.43633	25
2.44000	33
2.44367	45
2.44733	54
2.45100	56
2.45467	53
2.45833	40
2.46200	25
2.46567	13
2.46933	4
2.47300	-1
2.47667	-1
2.48033	3
2.48400	9
2.48767	18
2.49133	25
2.49500	27
2.49867	23
2.50233	14
2.50600	7
2.50967	6
2.51333	9
2.51700	13
2.52067	16
2.52433	21
2.52800	24
2.53167	26
2.53533	25
2.53900	26
2.54267	25
2.54633	26
2.55000	27
2.55367	25
2.55733	20
2.56100	19
2.56467	16
2.56833	16
2.57200	15
2.57567	14
2.57933	10
2.58300	5
2.58667	2
2.59033	7
2.59400	13
2.59767	16
2.60133	14
2.60500	10
2.60867	10
2.61233	8
2.61600	6
2.61967	7
2.62333	5
2.62700	0
2.63067	-2
2.63433	-2
2.63800	1
2.64167	2
2.64533	2
2.64900	-4
2.65267	-12
2.65633	-14
2.66000	-15
2.66367	-15
2.66733	-10
2.67100	-7
2.67467	-5
2.67833	-1
2.68200	2
2.68567	7
2.68933	9
2.69300	12
2.69667	12
2.70033	15
2.70400	20
2.70767	26
2.71133	33
2.71500	40
2.71867	38
2.72233	33
2.72600	28
2.72967	20
2.73333	10
2.73700	0
2.74067	-6
2.74433	-6
2.74800	-4
2.75167	2
2.75533	9
2.75900	19
2.76267	25
2.76633	23
2.77000	16
2.77367	14
2.77733	16
2.78100	17
2.78467	24
2.78833	42
2.79200	55
2.79567	59
2.79933	54
2.80300	47
2.80667	45
2.81033	45
2.81400	44
2.81767	48
2.82133	51
2.82500	53
2.82867	57
2.83233	61
2.83600	64
2.83967	65
2.84333	68
2.84700	69
2.85067	74
2.85433	75
2.85800	70
2.86167	67
2.86533	65
2.86900	61
2.87267	58
2.87633	57
2.88000	54
2.88367	51
2.88733	51
2.89100	51
2.89467	56
2.89833	69
2.90200	81
2.90567	85
2.90933	78
2.91300	74
2.91667	74
2.92033	75
2.92400	74
2.92767	75
2.93133	75
2.93500	74
2.93867	70
2.94233	68
2.94600	71
2.94967	73
2.95333	73
2.95700	72
2.96067	66
2.96433	57
2.96800	51
2.97167	47
2.97533	46
2.97900	48
2.98267	54
2.98633	62
2.99000	68
2.99367	71
2.99733	78
3.00100	87
3.00467	91
3.00833	94
3.01200	92
3.01567	89
3.01933	81
3.02300	69
3.02667	61
3.03033	55
3.03400	52
3.03767	52
3.04133	51
3.04500	46
3.04867	42
3.05233	41
3.05600	40
3.05967	42
3.06333	47
3.06700	53
3.07067	58
3.07433	61
3.07800	59
3.08167	52
3.08533	46
3.08900	46
3.09267	49
3.09633	58
3.10000	71
3.10367	82
3.10733	83
3.11100	79
3.11467	78
3.11833	81
3.12200	82
3.12567	75
3.12933	68
3.13300	69
3.13667	74
3.14033	79
3.14400	79
3.14767	74
3.15133	63
3.15500	53
3.15867	46
3.16233	45
3.16600	46
3.16967	44
3.17333	45
3.17700	45
3.18067	44
3.18433	42
3.18800	40
3.19167	40
3.19533	39
3.19900	41
3.20267	43
3.20633	48
3.21000	62
3.21367	74
3.21733	80
3.22100	77
3.22467	69
3.22833	67
3.23200	64
3.23567	58
3.23933	55
3.24300	58
3.24667	61
3.25033	61
3.25400	54
3.25767	45
3.26133	40
3.26500	37
3.26867	34
3.27233	29
3.27600	24
3.27967	18
3.28333	14
3.28700	17
3.29067	25
3.29433	38
3.29800	50
3.30167	59
3.30533	64
3.30900	65
3.31267	60
3.31633	51
3.32000	38
3.32367	29
3.32733	27
3.33100	28
3.33467	34
3.33833	42
3.34200	45
3.34567	46
3.34933	53
3.35300	59
3.35667	57
3.36033	52
3.36400	44
3.36767	37
3.37133	30
3.37500	24
3.37867	21
3.38233	24
3.38600	29
3.38967	35
3.39333	37
3.39700	34
3.40067	30
3.40433	28
3.40800	29
3.41167	31
3.41533	31
3.41900	28
3.42267	24
3.42633	19
3.43000	14
3.43367	11
3.43733	10
3.44100	13
3.44467	21
3.44833	29
3.45200	35
3.45567	40
3.45933	40
3.46300	38
3.46667	37
3.47033	34
3.47400	31
3.47767	26
3.48133	21
3.48500	17
3.48867	18
3.49233	21
3.49600	24
3.49967	24
3.50333	24
3.50700	25
3.51067	25
3.51433	29
3.51800	31
3.52167	28
3.52533	26
3.52900	31
3.53267	39
3.53633	46
3.54000	51
3.54367	53
3.54733	49
3.55100	48
3.55467	45
3.55833	35
3.56200	26
3.56567	20
3.56933	20
3.57300	24
3.57667	24
3.58033	21
3.58400	20
3.58767	22
3.59133	24
3.59500	26
3.59867	27
3.60233	25
3.60600	25
3.60967	25
3.61333	24
3.61700	16
3.62067	8
3.62433	4
3.62800	2
3.63167	2
3.63533	4
3.63900	2
3.64267	-6
3.64633	-6
3.65000	-1
3.65367	4
3.65733	11
3.66100	14
3.66467	17
3.66833	23
3.67200	25
3.67567	24
3.67933	22
3.68300	19
3.68667	18
3.69033	12
3.69400	15
3.69767	16
3.70133	13
3.70500	9
3.70867	7
3.71233	3
3.71600	4
3.71967	9
3.72333	16
3.72700	21
3.73067	25
3.73433	25
3.73800	21
3.74167	16
3.74533	12
3.74900	9
3.75267	3
3.75633	-2
3.76000	-5
3.76367	-6
3.76733	-7
3.77100	-3
3.77467	8
3.77833	14
3.78200	11
3.78567	9
3.78933	7
3.79300	3
3.79667	1
3.80033	1
3.80400	-2
3.80767	-7
3.81133	-11
3.81500	-8
3.81867	-8
3.82233	-8
3.82600	-11
3.82967	-11
3.83333	-11
3.83700	-12
3.84067	-11
3.84433	-5
3.84800	1
3.85167	-2
3.85533	-8
3.85900	-8
3.86267	-6
3.86633	-4
3.87000	-7
3.87367	-10
3.87733	-11
3.88100	-12
3.88467	-8
3.88833	-9
3.89200	-16
3.89567	-21
3.89933	-21
3.90300	-25
3.90667	-27
3.91033	-26
3.91400	-22
3.91767	-16
3.92133	-6
3.92500	1
3.92867	2
3.93233	-0
3.93600	-3
3.93967	-2
3.94333	-1
3.94700	-0
3.95067	1
3.95433	0
3.95800	-0
3.96167	-2
3.96533	-11
3.96900	-21
3.97267	-30
3.97633	-34
3.98000	-36
3.98367	-33
3.98733	-27
3.99100	-25
3.99467	-26
3.99833	-26

[Chromatogram (Ch2)]
Interval(msec)	220
# of Points	1091
Start Time(min)	0.002
End Time(min)	3.998
R.Time (min)	Intensity
0.00167	0
0.00533	-0
0.00900	-0
0.01267	-0
0.01633	-0
0.02000	-0
0.02367	0
0.02733	1
0.03100	1
0.03467	2
0.03833	2
0.04200	2
0.04567	2
0.04933	2
0.05300	2
0.05667	2
0.06033	2
0.06400	1
0.06767	1
0.07133	1
0.07500	1
0.07867	1
0.08233	0
0.08600	0
0.08967	-0
0.09333	-0
0.09700	-0
0.10067	-0
0.10433	-0
0.10800	-0
0.11167	-0
0.11533	-0
0.11900	0
0.12267	0
0.12633	1
0.13000	1
0.13367	1
0.13733	2
0.14100	2
0.14467	2
0.14833	1
0.15200	1
0.15567	1
0.15933	1
0.16300	1
0.16667	1
0.17033	0
0.17400	0
0.17767	0
0.18133	-0
0.18500	-0
0.18867	0
0.19233	0
0.19600	0
0.19967	0
0.20333	0
0.20700	0
0.21067	0
0.21433	-0
0.21800	-0
0.22167	-0
0.22533	-0
0.22900	-1
0.23267	-1
0.23633	-2
0.24000	-2
0.24367	-2
0.24733	-3
0.25100	-3
0.25467	-3
0.25833	-3
0.26200	-3
0.26567	-3
0.26933	-3
0.27300	-3
0.27667	-2
0.28033	-2
0.28400	-2
0.28767	-1
0.29133	-1
0.29500	-1
0.29867	-0
0.30233	-0
0.30600	0
0.30967	0
0.31333	0
0.31700	0
0.32067	0
0.32433	1
0.32800	1
0.33167	1
0.33533	2
0.33900	2
0.34267	2
0.34633	2
0.35000	3
0.35367	3
0.35733	3
0.36100	3
0.36467	3
0.36833	2
0.37200	2
0.37567	2
0.37933	2
0.38300	2
0.38667	2
0.39033	2
0.39400	2
0.39767	2
0.40133	2
0.40500	2
0.40867	2
0.41233	2
0.41600	2
0.41967	2
0.42333	2
0.42700	2
0.43067	2
0.43433	2
0.43800	1
0.44167	1
0.44533	1
0.44900	1
0.45267	0
0.45633	0
0.46000	-0
0.46367	-0
0.46733	0
0.47100	0
0.47467	0
0.47833	1
0.48200	1
0.48567	1
0.48933	1
0.49300	1
0.49667	2
0.50033	1
0.50400	1
0.50767	1
0.51133	1
0.51500	1
0.51867	1
0.52233	1
0.52600	1
0.52967	1
0.53333	1
0.53700	1
0.54067	1
0.54433	1
0.54800	1
0.55167	2
0.55533	2
0.55900	2
0.56267	2
0.56633	1
0.57000	1
0.57367	1
0.57733	0
0.58100	-0
0.58467	-1
0.58833	-1
0.59200	-2
0.59567	-2
0.59933	-3
0.60300	-3
0.60667	-3
0.61033	-3
0.61400	-3
0.61767	-3
0.62133	-3
0.62500	-3
0.62867	-3
0.63233	-3
0.63600	-3
0.63967	-2
0.64333	-2
0.64700	-2
0.65067	-2
0.65433	-1
0.65800	-1
0.66167	-0
0.66533	-0
0.66900	0
0.67267	0
0.67633	0
0.68000	0
0.68367	0
0.68733	0
0.69100	-0
0.69467	-0
0.69833	-0
0.70200	-1
0.70567	-1
0.70933	-1
0.71300	-1
0.71667	-1
0.72033	-1
0.72400	-1
0.72767	-1
0.73133	-1
0.73500	-1
0.73867	-1
0.74233	-1
0.74600	-0
0.74967	-0
0.75333	0
0.75700	0
0.76067	0
0.76433	1
0.76800	0
0.77167	0
0.77533	0
0.77900	0
0.78267	0
0.78633	0
0.79000	0
0.79367	1
0.79733	1
0.80100	1
0.80467	1
0.80833	1
0.81200	1
0.81567	1
0.81933	0
0.82300	0
0.82667	-0
0.83033	-0
0.83400	-0
0.83767	-0
0.84133	-0
0.84500	-1
0.84867	-1
0.85233	-1
0.85600	-1
0.85967	-0
0.86333	-0
0.86700	0
0.87067	0
0.87433	0
0.87800	1
0.88167	1
0.88533	1
0.88900	1
0.89267	1
0.89633	1
0.90000	1
0.90367	2
0.90733	2
0.91100	2
0.91467	2
0.91833	2
0.92200	2
0.92567	2
0.92933	2
0.93300	1
0.93667	1
0.94033	0
0.94400	-0
0.94767	-1
0.95133	-1
0.95500	-2
0.95867	-2
0.96233	-2
0.96600	-2
0.96967	-2
0.97333	-3
0.97700	-3
0.98067	-3
0.98433	-4
0.98800	-4
0.99167	-4
0.99533	-4
0.99900	-4
1.00267	-4
1.00633	-4
1.01000	-4
1.01367	-4
1.01733	-4
1.02100	-3
1.02467	-3
1.02833	-3
1.03200	-3
1.03567	-3
1.03933	-3
1.04300	-3
1.04667	-3
1.05033	-2
1.05400	-2
1.05767	-2
1.06133	-2
1.06500	-2
1.06867	-2
1.07233	-1
1.07600	-1
1.07967	-1
1.08333	-1
1.08700	-1
1.09067	-1
1.09433	-1
1.09800	-1
1.10167	-1
1.10533	-1
1.10900	-1
1.11267	-1
1.11633	-1
1.12000	-1
1.12367	-1
1.12733	-1
1.13100	-1
1.13467	-1
1.13833	-1
1.14200	-1
1.14567	-1
1.14933	-1
1.15300	-1
1.15667	-1
1.16033	-1
1.16400	-1
1.16767	-1
1.17133	-1
1.17500	-1
1.17867	-1
1.18233	-2
1.18600	-2
1.18967	-2
1.19333	-2
1.19700	-2
1.20067	-1
1.20433	-1
1.20800	-2
1.21167	-2
1.21533	-2
1.21900	-2
1.22267	-2
1.22633	-2
1.23000	-2
1.23367	-2
1.23733	-2
1.24100	-2
1.24467	-2
1.24833	-1
1.25200	-1
1.25567	-1
1.25933	-0
1.26300	-0
1.26667	-0
1.27033	-0
1.27400	-0
1.27767	-0
1.28133	-0
1.28500	-0
1.28867	-1
1.29233	-1
1.29600	-1
1.29967	-1
1.30333	-1
1.30700	-1
1.31067	-1
1.31433	-1
1.31800	-1
1.32167	-1
1.32533	-2
1.32900	-2
1.33267	-2
1.33633	-2
1.34000	-2
1.34367	-2
1.34733	-2
1.35100	-2
1.35467	-3
1.35833	-3
1.36200	-3
1.36567	-3
1.36933	-3
1.37300	-3
1.37667	-3
1.38033	-3
1.38400	-2
1.38767	-2
1.39133	-2
1.39500	-1
1.39867	-1
1.40233	-0
1.40600	-0
1.40967	-0
1.41333	-0
1.41700	-0
1.42067	-0
1.42433	-0
1.42800	-0
1.43167	-0
1.43533	-0
1.43900	-0
1.44267	-0
1.44633	-0
1.45000	-1
1.45367	-1
1.45733	-1
1.46100	-1
1.46467	-1
1.46833	-2
1.47200	-2
1.47567	-2
1.47933	-2
1.48300	-2
1.48667	-2
1.49033	-2
1.49400	-2
1.49767	-2
1.50133	-2
1.50500	-2
1.50867	-3
1.51233	-3
1.51600	-3
1.51967	-3
1.52333	-3
1.52700	-4
1.53067	-4
1.53433	-4
1.53800	-4
1.54167	-4
1.54533	-4
1.54900	-4
1.55267	-4
1.55633	-4
1.56000	-4
1.56367	-4
1.56733	-4
1.57100	-4
1.57467	-4
1.57833	-4
1.58200	-4
1.58567	-3
1.58933	-3
1.59300	-3
1.59667	-4
1.60033	-5
1.60400	-6
1.60767	-7
1.61133	-9
1.61500	-11
1.61867	-13
1.62233	-16
1.62600	-19
1.62967	-22
1.63333	-25
1.63700	-28
1.64067	-31
1.64433	-34
1.64800	-38
1.65167	-41
1.65533	-45
1.65900	-49
1.66267	-52
1.66633	-56
1.67000	-60
1.67367	-65
1.67733	-70
1.68100	-75
1.68467	-80
1.68833	-84
1.69200	-89
1.69567	-92
1.69933	-96
1.70300	-98
1.70667	-100
1.71033	-102
1.71400	-103
1.71767	-104
1.72133	-105
1.72500	-106
1.72867	-106
1.73233	-107
1.73600	-107
1.73967	-108
1.74333	-108
1.74700	-109
1.75067	-109
1.75433	-110
1.75800	-110
1.76167	-110
1.76533	-110
1.76900	-109
1.77267	-109
1.77633	-108
1.78000	-108
1.78367	-108
1.78733	-108
1.79100	-109
1.79467	-110
1.79833	-111
1.80200	-112
1.80567	-113
1.80933	-113
1.81300	-114
1.81667	-114
1.82033	-114
1.82400	-115
1.82767	-115
1.83133	-115
1.83500	-116
1.83867	-116
1.84233	-116
1.84600	-116
1.84967	-116
1.85333	-116
1.85700	-115
1.86067	-115
1.86433	-115
1.86800	-114
1.87167	-113
1.87533	-113
1.87900	-113
1.88267	-113
1.88633	-113
1.89000	-113
1.89367	-113
1.89733	-113
1.90100	-113
1.90467	-113
1.90833	-112
1.91200	-112
1.91567	-111
1.91933	-111
1.92300	-110
1.92667	-110
1.93033	-110
1.93400	-109
1.93767	-109
1.94133	-108
1.94500	-108
1.94867	-108
1.95233	-107
1.95600	-107
1.95967	-108
1.96333	-108
1.96700	-108
1.97067	-109
1.97433	-109
1.97800	-109
1.98167	-108
1.98533	-108
1.98900	-107
1.99267	-107
1.99633	-107
2.00000	-107
2.00367	-106
2.00733	-106
2.01100	-105
2.01467	-105
2.01833	-105
2.02200	-105
2.02567	-106
2.02933	-106
2.03300	-106
2.03667	-106
2.04033	-107
2.04400	-106
2.04767	-106
2.05133	-106
2.05500	-106
2.05867	-106
2.06233	-105
2.06600	-105
2.06967	-104
2.07333	-104
2.07700	-103
2.08067	-102
2.08433	-102
2.08800	-101
2.09167	-101
2.09533	-100
2.09900	-100
2.10267	-99
2.10633	-98
2.11000	-98
2.11367	-98
2.11733	-99
2.12100	-99
2.12467	-99
2.12833	-99
2.13200	-99
2.13567	-99
2.13933	-99
2.14300	-98
2.14667	-98
2.15033	-97
2.15400	-96
2.15767	-96
2.16133	-95
2.16500	-94
2.16867	-93
2.17233	-92
2.17600	-92
2.17967	-91
2.18333	-91
2.18700	-91
2.19067	-90
2.19433	-90
2.19800	-90
2.20167	-89
2.20533	-89
2.20900	-89
2.21267	-89
2.21633	-88
2.22000	-88
2.22367	-87
2.22733	-87
2.23100	-86
2.23467	-86
2.23833	-86
2.24200	-86
2.24567	-85
2.24933	-85
2.25300	-85
2.25667	-85
2.26033	-85
2.26400	-85
2.26767	-85
2.27133	-85
2.27500	-85
2.27867	-84
2.28233	-84
2.28600	-83
2.28967	-83
2.29333	-83
2.29700	-83
2.30067	-82
2.30433	-82
2.30800	-81
2.31167	-81
2.31533	-82
2.31900	-82
2.32267	-83
2.32633	-84
2.33000	-83
2.33367	-83
2.33733	-82
2.34100	-81
2.34467	-79
2.34833	-78
2.35200	-77
2.35567	-76
2.35933	-74
2.36300	-73
2.36667	-72
2.37033	-70
2.37400	-68
2.37767	-65
2.38133	-61
2.38500	-58
2.38867	-54
2.39233	-50
2.39600	-45
2.39967	-41
2.40333	-36
2.40700	-32
2.41067	-28
2.41433	-24
2.41800	-21
2.42167	-18
2.42533	-15
2.42900	-13
2.43267	-12
2.43633	-11
2.44000	-10
2.44367	-9
2.44733	-8
2.45100	-7
2.45467	-6
2.45833	-6
2.46200	-6
2.46567	-5
2.46933	-5
2.47300	-5
2.47667	-4
2.48033	-3
2.48400	-2
2.48767	-1
2.49133	0
2.49500	1
2.49867	2
2.50233	3
2.50600	4
2.50967	5
2.51333	5
2.51700	6
2.52067	7
2.52433	8
2.52800	10
2.53167	11
2.53533	12
2.53900	12
2.54267	12
2.54633	12
2.55000	12
2.55367	13
2.55733	13
2.56100	13
2.56467	14
2.56833	15
2.57200	15
2.57567	16
2.57933	17
2.58300	17
2.58667	17
2.59033	17
2.59400	16
2.59767	16
2.60133	16
2.60500	17
2.60867	17
2.61233	17
2.61600	17
2.61967	17
2.62333	17
2.62700	17
2.63067	17
2.63433	17
2.63800	17
2.64167	17
2.64533	17
2.64900	17
2.65267	17
2.65633	18
2.66000	18
2.66367	19
2.66733	19
2.67100	19
2.67467	19
2.67833	19
2.68200	20
2.68567	20
2.68933	21
2.69300	21
2.69667	22
2.70033	22
2.70400	23
2.70767	23
2.71133	23
2.71500	23
2.71867	23
2.72233	23
2.72600	23
2.72967	23
2.73333	23
2.73700	24
2.74067	24
2.74433	24
2.74800	25
2.75167	25
2.75533	25
2.75900	25
2.76267	25
2.76633	25
2.77000	25
2.77367	25
2.77733	25
2.78100	25
2.78467	25
2.78833	25
2.79200	25
2.79567	24
2.79933	24
2.80300	24
2.80667	24
2.81033	24
2.81400	24
2.81767	24
2.82133	24
2.82500	24
2.82867	24
2.83233	24
2.83600	24
2.83967	23
2.84333	22
2.84700	20
2.85067	16
2.85433	10
2.85800	0
2.86167	-12
2.86533	-29
2.86900	-50
2.87267	-76
2.87633	-106
2.88000	-140
2.88367	-178
2.88733	-220
2.89100	-266
2.89467	-314
2.89833	-365
2.90200	-418
2.90567	-472
2.90933	-527
2.91300	-582
2.91667	-637
2.92033	-692
2.92400	-746
2.92767	-798
2.93133	-849
2.93500	-901
2.93867	-958
2.94233	-1016
2.94600	-1064
2.94967	-1094
2.95333	-1098
2.95700	-1076
2.96067	-1032
2.96433	-971
2.96800	-899
2.97167	-821
2.97533	-740
2.97900	-660
2.98267	-584
2.98633	-513
2.99000	-448
2.99367	-389
2.99733	-336
3.00100	-290
3.00467	-248
3.00833	-212
3.01200	-181
3.01567	-153
3.01933	-130
3.02300	-109
3.02667	-92
3.03033	-76
3.03400	-63
3.03767	-52
3.04133	-43
3.04500	-35
3.04867	-28
3.05233	-22
3.05600	-18
3.05967	-13
3.06333	-10
3.06700	-7
3.07067	-4
3.07433	-1
3.07800	1
3.08167	2
3.08533	4
3.08900	6
3.09267	7
3.09633	8
3.10000	9
3.10367	11
3.10733	11
3.11100	12
3.11467	13
3.11833	13
3.12200	14
3.12567	14
3.12933	14
3.13300	15
3.13667	15
3.14033	15
3.14400	15
3.14767	15
3.15133	15
3.15500	16
3.15867	16
3.16233	16
3.16600	16
3.16967	16
3.17333	16
3.17700	17
3.18067	17
3.18433	17
3.18800	17
3.19167	17
3.19533	17
3.19900	18
3.20267	18
3.20633	18
3.21000	18
3.21367	19
3.21733	19
3.22100	19
3.22467	20
3.22833	20
3.23200	20
3.23567	21
3.23933	21
3.24300	21
3.24667	21
3.25033	22
3.25400	22
3.25767	22
3.26133	23
3.26500	23
3.26867	23
3.27233	24
3.27600	24
3.27967	24
3.28333	24
3.28700	25
3.29067	25
3.29433	25
3.29800	25
3.30167	25
3.30533	25
3.30900	25
3.31267	25
3.31633	25
3.32000	24
3.32367	24
3.32733	24
3.33100	24
3.33467	23
3.33833	23
3.34200	23
3.34567	23
3.34933	23
3.35300	24
3.35667	24
3.36033	24
3.36400	24
3.36767	24
3.37133	24
3.37500	24
3.37867	24
3.38233	24
3.38600	24
3.38967	24
3.39333	24
3.39700	23
3.40067	23
3.40433	23
3.40800	24
3.41167	24
3.41533	24
3.41900	24
3.42267	24
3.42633	24
3.43000	25
3.43367	25
3.43733	25
3.44100	25
3.44467	25
3.44833	25
3.45200	25
3.45567	25
3.45933	25
3.46300	25
3.46667	25
3.47033	26
3.47400	26
3.47767	26
3.48133	26
3.48500	26
3.48867	26
3.49233	26
3.49600	26
3.49967	25
3.50333	25
3.50700	25
3.51067	25
3.51433	25
3.51800	25
3.52167	25
3.52533	25
3.52900	25
3.53267	25
3.53633	25
3.54000	25
3.54367	25
3.54733	25
3.55100	25
3.55467	25
3.55833	24
3.56200	24
3.56567	24
3.56933	24
3.57300	24
3.57667	24
3.58033	24
3.58400	24
3.58767	25
3.59133	25
3.59500	25
3.59867	26
3.60233	26
3.60600	26
3.60967	27
3.61333	27
3.61700	27
3.62067	27
3.62433	27
3.62800	27
3.63167	27
3.63533	27
3.63900	27
3.64267	27
3.64633	27
3.65000	27
3.65367	27
3.65733	27
3.66100	27
3.66467	27
3.66833	26
3.67200	27
3.67567	27
3.67933	27
3.68300	27
3.68667	26
3.69033	26
3.69400	26
3.69767	26
3.70133	26
3.70500	26
3.70867	27
3.71233	27
3.71600	27
3.71967	27
3.72333	27
3.72700	27
3.73067	27
3.73433	27
3.73800	26
3.74167	26
3.74533	26
3.74900	26
3.75267	27
3.75633	27
3.76000	27
3.76367	27
3.76733	27
3.77100	27
3.77467	27
3.77833	26
3.78200	26
3.78567	26
3.78933	26
3.79300	25
3.79667	25
3.80033	25
3.80400	25
3.80767	25
3.81133	25
3.81500	25
3.81867	25
3.82233	26
3.82600	26
3.82967	26
3.83333	25
3.83700	25
3.84067	25
3.84433	25
3.84800	25
3.85167	25
3.85533	24
3.85900	24
3.86267	24
3.86633	24
3.87000	25
3.87367	25
3.87733	25
3.88100	25
3.88467	26
3.88833	26
3.89200	26
3.89567	26
3.89933	26
3.90300	26
3.90667	26
3.91033	26
3.91400	26
3.91767	26
3.92133	26
3.92500	26
3.92867	26
3.93233	26
3.93600	26
3.93967	25
3.94333	25
3.94700	25
3.95067	25
3.95433	26
3.95800	25
3.96167	25
3.96533	25
3.96900	25
3.97267	25
3.97633	25
3.98000	25
3.98367	25
3.98733	25
3.99100	26
3.99467	26
3.99833	26

[Chromatogram (Ch3)]
Interval(msec)	220
# of Points	1091
Start Time(min)	0.002
End Time(min)	3.998
R.Time (min)	Intensity
0.00167	1
0.00533	4
0.00900	5
0.01267	5
0.01633	3
0.02000	3
0.02367	5
0.02733	7
0.03100	8
0.03467	8
0.03833	7
0.04200	7
0.04567	6
0.04933	6
0.05300	6
0.05667	4
0.06033	4
0.06400	3
0.06767	4
0.07133	4
0.07500	6
0.07867	5
0.08233	4
0.08600	2
0.08967	-0
0.09333	1
0.09700	3
0.10067	3
0.10433	3
0.10800	5
0.11167	5
0.11533	5
0.11900	6
0.12267	5
0.12633	6
0.13000	8
0.13367	8
0.13733	9
0.14100	9
0.14467	6
0.14833	3
0.15200	5
0.15567	9
0.15933	9
0.16300	8
0.16667	7
0.17033	8
0.17400	7
0.17767	6
0.18133	6
0.18500	5
0.18867	6
0.19233	6
0.19600	4
0.19967	3
0.20333	4
0.20700	5
0.21067	5
0.21433	4
0.21800	4
0.22167	4
0.22533	3
0.22900	4
0.23267	4
0.23633	5
0.24000	5
0.24367	6
0.24733	7
0.25100	6
0.25467	4
0.25833	2
0.26200	2
0.26567	4
0.26933	5
0.27300	5
0.27667	6
0.28033	8
0.28400	9
0.28767	9
0.29133	6
0.29500	6
0.29867	9
0.30233	10
0.30600	10
0.30967	10
0.31333	12
0.31700	11
0.32067	7
0.32433	4
0.32800	3
0.33167	4
0.33533	4
0.33900	5
0.34267	5
0.34633	7
0.35000	8
0.35367	8
0.35733	10
0.36100	9
0.36467	7
0.36833	6
0.37200	6
0.37567	6
0.37933	7
0.38300	7
0.38667	7
0.39033	7
0.39400	6
0.39767	6
0.40133	7
0.40500	7
0.40867	6
0.41233	5
0.41600	4
0.41967	5
0.42333	7
0.42700	9
0.43067	9
0.43433	9
0.43800	10
0.44167	11
0.44533	11
0.44900	12
0.45267	13
0.45633	14
0.46000	12
0.46367	13
0.46733	13
0.47100	11
0.47467	8
0.47833	7
0.48200	6
0.48567	8
0.48933	10
0.49300	11
0.49667	10
0.50033	10
0.50400	9
0.50767	8
0.51133	7
0.51500	7
0.51867	8
0.52233	6
0.52600	4
0.52967	1
0.53333	1
0.53700	3
0.54067	4
0.54433	6
0.54800	6
0.55167	6
0.55533	8
0.55900	9
0.56267	9
0.56633	9
0.57000	10
0.57367	13
0.57733	17
0.58100	19
0.58467	20
0.58833	20
0.59200	18
0.59567	18
0.59933	17
0.60300	17
0.60667	18
0.61033	18
0.61400	16
0.61767	16
0.62133	17
0.62500	18
0.62867	17
0.63233	16
0.63600	16
0.63967	16
0.64333	18
0.64700	18
0.65067	18
0.65433	19
0.65800	21
0.66167	22
0.66533	24
0.66900	25
0.67267	25
0.67633	25
0.68000	24
0.68367	25
0.68733	27
0.69100	27
0.69467	27
0.69833	27
0.70200	28
0.70567	29
0.70933	29
0.71300	27
0.71667	28
0.72033	30
0.72400	32
0.72767	31
0.73133	31
0.73500	30
0.73867	28
0.74233	27
0.74600	26
0.74967	26
0.75333	26
0.75700	28
0.76067	30
0.76433	29
0.76800	27
0.77167	25
0.77533	21
0.77900	20
0.78267	20
0.78633	21
0.79000	22
0.79367	23
0.79733	25
0.80100	26
0.80467	25
0.80833	24
0.81200	24
0.81567	26
0.81933	28
0.82300	27
0.82667	24
0.83033	22
0.83400	21
0.83767	20
0.84133	19
0.84500	20
0.84867	21
0.85233	21
0.85600	21
0.85967	19
0.86333	18
0.86700	20
0.87067	21
0.87433	21
0.87800	21
0.88167	22
0.88533	24
0.88900	24
0.89267	25
0.89633	24
0.90000	23
0.90367	21
0.90733	21
0.91100	20
0.91467	22
0.91833	21
0.92200	21
0.92567	23
0.92933	24
0.93300	23
0.93667	22
0.94033	22
0.94400	21
0.94767	20
0.95133	19
0.95500	20
0.95867	21
0.96233	21
0.96600	21
0.96967	23
0.97333	23
0.97700	22
0.98067	22
0.98433	22
0.98800	23
0.99167	24
0.99533	24
0.99900	23
1.00267	23
1.00633	23
1.01000	24
1.01367	25
1.01733	25
1.02100	24
1.02467	23
1.02833	24
1.03200	24
1.03567	23
1.03933	24
1.04300	24
1.04667	24
1.05033	23
1.05400	23
1.05767	24
1.06133	25
1.06500	25
1.06867	25
1.07233	26
1.07600	27
1.07967	26
1.08333	25
1.08700	24
1.09067	24
1.09433	24
1.09800	25
1.10167	27
1.10533	29
1.10900	27
1.11267	24
1.11633	25
1.12000	27
1.12367	28
1.12733	28
1.13100	29
1.13467	28
1.13833	29
1.14200	28
1.14567	28
1.14933	27
1.15300	26
1.15667	27
1.16033	27
1.16400	26
1.16767	26
1.17133	26
1.17500	24
1.17867	23
1.18233	23
1.18600	24
1.18967	25
1.19333	24
1.19700	24
1.20067	25
1.20433	26
1.20800	27
1.21167	27
1.21533	26
1.21900	27
1.22267	27
1.22633	26
1.23000	25
1.23367	23
1.23733	24
1.24100	24
1.24467	24
1.24833	25
1.25200	26
1.25567	26
1.25933	23
1.26300	22
1.26667	22
1.27033	23
1.27400	23
1.27767	23
1.28133	24
1.28500	23
1.28867	23
1.29233	24
1.29600	23
1.29967	24
1.30333	24
1.30700	25
1.31067	26
1.31433	25
1.31800	25
1.32167	25
1.32533	25
1.32900	25
1.33267	26
1.33633	26
1.34000	26
1.34367	26
1.34733	27
1.35100	26
1.35467	26
1.35833	26
1.36200	28
1.36567	25
1.36933	23
1.37300	21
1.37667	19
1.38033	19
1.38400	20
1.38767	21
1.39133	22
1.39500	23
1.39867	24
1.40233	24
1.40600	24
1.40967	26
1.41333	25
1.41700	23
1.42067	22
1.42433	22
1.42800	22
1.43167	22
1.43533	22
1.43900	21
1.44267	21
1.44633	21
1.45000	20
1.45367	19
1.45733	21
1.46100	23
1.46467	22
1.46833	20
1.47200	19
1.47567	19
1.47933	20
1.48300	21
1.48667	21
1.49033	22
1.49400	22
1.49767	22
1.50133	22
1.50500	22
1.50867	19
1.51233	18
1.51600	18
1.51967	17
1.52333	17
1.52700	17
1.53067	17
1.53433	18
1.53800	20
1.54167	18
1.54533	17
1.54900	19
1.55267	19
1.55633	19
1.56000	18
1.56367	20
1.56733	20
1.57100	20
1.57467	21
1.57833	21
1.58200	22
1.58567	21
1.58933	22
1.59300	22
1.59667	24
1.60033	25
1.60400	24
1.60767	23
1.61133	24
1.61500	26
1.61867	30
1.62233	31
1.62600	31
1.62967	31
1.63333	32
1.63700	31
1.64067	30
1.64433	26
1.64800	24
1.65167	25
1.65533	26
1.65900	27
1.66267	28
1.66633	30
1.67000	31
1.67367	31
1.67733	32
1.68100	33
1.68467	34
1.68833	36
1.69200	37
1.69567	37
1.69933	39
1.70300	40
1.70667	40
1.71033	37
1.71400	36
1.71767	36
1.72133	37
1.72500	39
1.72867	40
1.73233	41
1.73600	43
1.73967	44
1.74333	46
1.74700	46
1.75067	43
1.75433	39
1.75800	39
1.76167	39
1.76533	40
1.76900	43
1.77267	47
1.77633	49
1.78000	48
1.78367	44
1.78733	42
1.79100	42
1.79467	44
1.79833	45
1.80200	44
1.80567	44
1.80933	48
1.81300	51
1.81667	52
1.82033	51
1.82400	50
1.82767	50
1.83133	52
1.83500	51
1.83867	52
1.84233	53
1.84600	54
1.84967	55
1.85333	57
1.85700	57
1.86067	58
1.86433	59
1.86800	58
1.87167	58
1.87533	60
1.87900	62
1.88267	63
1.88633	63
1.89000	63
1.89367	66
1.89733	67
1.90100	67
1.90467	67
1.90833	67
1.91200	69
1.91567	68
1.91933	68
1.92300	71
1.92667	72
1.93033	72
1.93400	73
1.93767	76
1.94133	78
1.94500	76
1.94867	76
1.95233	76
1.95600	74
1.95967	74
1.96333	75
1.96700	77
1.97067	79
1.97433	80
1.97800	80
1.98167	80
1.98533	80
1.98900	80
1.99267	80
1.99633	81
2.00000	83
2.00367	85
2.00733	83
2.01100	82
2.01467	82
2.01833	84
2.02200	83
2.02567	82
2.02933	83
2.03300	85
2.03667	86
2.04033	86
2.04400	86
2.04767	88
2.05133	91
2.05500	91
2.05867	92
2.06233	93
2.06600	93
2.06967	92
2.07333	93
2.07700	93
2.08067	92
2.08433	93
2.08800	96
2.09167	98
2.09533	100
2.09900	102
2.10267	105
2.10633	108
2.11000	111
2.11367	112
2.11733	110
2.12100	109
2.12467	109
2.12833	110
2.13200	112
2.13567	114
2.13933	116
2.14300	117
2.14667	117
2.15033	118
2.15400	119
2.15767	120
2.16133	120
2.16500	123
2.16867	124
2.17233	124
2.17600	121
2.17967	121
2.18333	122
2.18700	123
2.19067	124
2.19433	126
2.19800	128
2.20167	129
2.20533	129
2.20900	131
2.21267	132
2.21633	133
2.22000	136
2.22367	138
2.22733	138
2.23100	139
2.23467	141
2.23833	142
2.24200	142
2.24567	141
2.24933	144
2.25300	147
2.25667	149
2.26033	149
2.26400	146
2.26767	146
2.27133	149
2.27500	150
2.27867	151
2.28233	152
2.28600	154
2.28967	157
2.29333	157
2.29700	157
2.30067	157
2.30433	158
2.30800	161
2.31167	163
2.31533	165
2.31900	168
2.32267	173
2.32633	175
2.33000	175
2.33367	175
2.33733	174
2.34100	174
2.34467	175
2.34833	175
2.35200	175
2.35567	176
2.35933	176
2.36300	178
2.36667	181
2.37033	183
2.37400	184
2.37767	183
2.38133	184
2.38500	183
2.38867	181
2.39233	183
2.39600	185
2.39967	186
2.40333	187
2.40700	189
2.41067	190
2.41433	192
2.41800	193
2.42167	197
2.42533	198
2.42900	198
2.43267	197
2.43633	196
2.44000	197
2.44367	236
2.44733	340
2.45100	458
2.45467	557
2.45833	608
2.46200	610
2.46567	592
2.46933	575
2.47300	564
2.47667	553
2.48033	531
2.48400	501
2.48767	464
2.49133	426
2.49500	394
2.49867	372
2.50233	360
2.50600	354
2.50967	356
2.51333	366
2.51700	379
2.52067	391
2.52433	401
2.52800	401
2.53167	393
2.53533	376
2.53900	354
2.54267	330
2.54633	309
2.55000	293
2.55367	278
2.55733	263
2.56100	251
2.56467	245
2.56833	240
2.57200	236
2.57567	234
2.57933	234
2.58300	236
2.58667	237
2.59033	240
2.59400	243
2.59767	247
2.60133	250
2.60500	250
2.60867	249
2.61233	246
2.61600	238
2.61967	229
2.62333	219
2.62700	205
2.63067	189
2.63433	174
2.63800	160
2.64167	148
2.64533	140
2.64900	132
2.65267	124
2.65633	116
2.66000	110
2.66367	105
2.66733	104
2.67100	102
2.67467	100
2.67833	97
2.68200	97
2.68567	96
2.68933	97
2.69300	99
2.69667	103
2.70033	109
2.70400	112
2.70767	113
2.71133	115
2.71500	118
2.71867	122
2.72233	123
2.72600	129
2.72967	135
2.73333	138
2.73700	137
2.74067	138
2.74433	141
2.74800	145
2.75167	149
2.75533	149
2.75900	153
2.76267	156
2.76633	161
2.77000	165
2.77367	165
2.77733	165
2.78100	166
2.78467	167
2.78833	169
2.79200	174
2.79567	178
2.79933	181
2.80300	183
2.80667	186
2.81033	189
2.81400	192
2.81767	198
2.82133	208
2.82500	223
2.82867	249
2.83233	300
2.83600	396
2.83967	558
2.84333	806
2.84700	1153
2.85067	1599
2.85433	2128
2.85800	2705
2.86167	3286
2.86533	3822
2.86900	4272
2.87267	4602
2.87633	4792
2.88000	4841
2.88367	4764
2.88733	4583
2.89100	4325
2.89467	4016
2.89833	3680
2.90200	3341
2.90567	3008
2.90933	2690
2.91300	2393
2.91667	2122
2.92033	1877
2.92400	1661
2.92767	1468
2.93133	1300
2.93500	1153
2.93867	1025
2.94233	912
2.94600	814
2.94967	731
2.95333	659
2.95700	596
2.96067	539
2.96433	491
2.96800	451
2.97167	413
2.97533	380
2.97900	352
2.98267	328
2.98633	309
2.99000	295
2.99367	282
2.99733	270
3.00100	260
3.00467	251
3.00833	243
3.01200	236
3.01567	228
3.01933	222
3.02300	216
3.02667	212
3.03033	208
3.03400	205
3.03767	202
3.04133	201
3.04500	200
3.04867	200
3.05233	198
3.05600	197
3.05967	197
3.06333	197
3.06700	197
3.07067	198
3.07433	199
3.07800	198
3.08167	198
3.08533	198
3.08900	198
3.09267	196
3.09633	197
3.10000	199
3.10367	201
3.10733	201
3.11100	201
3.11467	200
3.11833	200
3.12200	201
3.12567	204
3.12933	203
3.13300	203
3.13667	203
3.14033	203
3.14400	202
3.14767	202
3.15133	204
3.15500	204
3.15867	204
3.16233	205
3.16600	205
3.16967	207
3.17333	210
3.17700	213
3.18067	215
3.18433	216
3.18800	216
3.19167	216
3.19533	218
3.19900	218
3.20267	220
3.20633	222
3.21000	223
3.21367	223
3.21733	224
3.22100	228
3.22467	231
3.22833	235
3.23200	234
3.23567	235
3.23933	240
3.24300	242
3.24667	243
3.25033	241
3.25400	240
3.25767	248
3.26133	267
3.26500	293
3.26867	326
3.27233	363
3.27600	404
3.27967	449
3.28333	497
3.28700	549
3.29067	597
3.29433	642
3.29800	685
3.30167	724
3.30533	756
3.30900	784
3.31267	809
3.31633	830
3.32000	850
3.32367	866
3.32733	880
3.33100	897
3.33467	911
3.33833	923
3.34200	933
3.34567	941
3.34933	948
3.35300	956
3.35667	963
3.36033	969
3.36400	976
3.36767	981
3.37133	983
3.37500	986
3.37867	990
3.38233	996
3.38600	1000
3.38967	1004
3.39333	1011
3.39700	1015
3.40067	1019
3.40433	1022
3.40800	1022
3.41167	1020
3.41533	1019
3.41900	1019
3.42267	1018
3.42633	1016
3.43000	1015
3.43367	1015
3.43733	1015
3.44100	1015
3.44467	1014
3.44833	1012
3.45200	1010
3.45567	1006
3.45933	1003
3.46300	999
3.46667	995
3.47033	991
3.47400	986
3.47767	980
3.48133	976
3.48500	972
3.48867	968
3.49233	965
3.49600	962
3.49967	957
3.50333	955
3.50700	954
3.51067	949
3.51433	946
3.51800	942
3.52167	940
3.52533	938
3.52900	937
3.53267	937
3.53633	937
3.54000	934
3.54367	932
3.54733	929
3.55100	927
3.55467	925
3.55833	924
3.56200	923
3.56567	921
3.56933	919
3.57300	919
3.57667	919
3.58033	921
3.58400	920
3.58767	919
3.59133	919
3.59500	919
3.59867	917
3.60233	917
3.60600	915
3.60967	911
3.61333	909
3.61700	907
3.62067	904
3.62433	900
3.62800	897
3.63167	895
3.63533	894
3.63900	892
3.64267	889
3.64633	887
3.65000	886
3.65367	884
3.65733	882
3.66100	880
3.66467	878
3.66833	877
3.67200	875
3.67567	872
3.67933	871
3.68300	869
3.68667	867
3.69033	865
3.69400	863
3.69767	858
3.70133	856
3.70500	854
3.70867	852
3.71233	850
3.71600	849
3.71967	848
3.72333	846
3.72700	843
3.73067	840
3.73433	836
3.73800	833
3.74167	830
3.74533	827
3.74900	824
3.75267	822
3.75633	820
3.76000	819
3.76367	816
3.76733	813
3.77100	812
3.77467	809
3.77833	804
3.78200	802
3.78567	799
3.78933	796
3.79300	793
3.79667	793
3.80033	791
3.80400	788
3.80767	786
3.81133	784
3.81500	784
3.81867	781
3.82233	779
3.82600	776
3.82967	772
3.83333	766
3.83700	760
3.84067	757
3.84433	755
3.84800	755
3.85167	754
3.85533	751
3.85900	749
3.86267	748
3.86633	746
3.87000	744
3.87367	740
3.87733	735
3.88100	731
3.88467	731
3.88833	733
3.89200	732
3.89567	729
3.89933	724
3.90300	718
3.90667	716
3.91033	713
3.91400	711
3.91767	711
3.92133	713
3.92500	715
3.92867	715
3.93233	714
3.93600	714
3.93967	714
3.94333	710
3.94700	704
3.95067	699
3.95433	697
3.95800	697
3.96167	698
3.96533	696
3.96900	692
3.97267	690
3.97633	687
3.98000	686
3.98367	683
3.98733	679
3.99100	675
3.99467	673
3.99833	671

[Status Trace (Column Oven Temperature)]
Interval(msec)	1000
# of Points	240
Start Time(min)	0.013
End Time(min)	3.996
Intensity Units	
Intensity Multiplier	1
R.Time (min)	Intensity
0.01297	35.07
0.02963	35.06
0.04630	35.05
0.06297	35.05
0.07963	35.05
0.09630	35.04
0.11297	35.04
0.12963	35.03
0.14630	35.03
0.16297	35.03
0.17963	35.04
0.19630	35.03
0.21297	35.03
0.22963	35.03
0.24630	35.05
0.26297	35.05
0.27963	35.05
0.29630	35.05
0.31297	35.05
0.32963	35.04
0.34630	35.03
0.36297	35.02
0.37963	35.01
0.39630	35.01
0.41297	35.00
0.42963	35.01
0.44630	35.01
0.46297	35.01
0.47963	35.00
0.49630	34.99
0.51297	34.99
0.52963	34.99
0.54630	34.97
0.56297	34.98
0.57963	35.00
0.59630	35.01
0.61297	35.02
0.62963	35.02
0.64630	35.02
0.66297	35.01
0.67963	35.01
0.69630	35.01
0.71297	35.03
0.72963	35.01
0.74630	35.02
0.76297	35.02
0.77963	35.02
0.79630	35.00
0.81297	34.99
0.82963	34.99
0.84630	34.99
0.86297	34.98
0.87963	34.98
0.89630	34.96
0.91297	34.95
0.92963	34.94
0.94630	34.95
0.96297	34.97
0.97963	34.99
0.99630	35.00
1.01297	35.01
1.02963	35.02
1.04630	35.02
1.06297	35.01
1.07963	35.01
1.09630	35.01
1.11297	35.01
1.12963	34.99
1.14630	34.99
1.16297	34.99
1.17963	34.99
1.19630	34.99
1.21297	34.99
1.22963	34.99
1.24630	34.98
1.26297	34.98
1.27963	34.98
1.29630	34.99
1.31297	34.99
1.32963	35.00
1.34630	34.99
1.36297	35.00
1.37963	34.99
1.39630	34.99
1.41297	34.98
1.42963	34.98
1.44630	34.97
1.46297	34.97
1.47963	34.97
1.49630	34.98
1.51297	34.99
1.52963	35.00
1.54630	35.00
1.56297	35.01
1.57963	35.01
1.59630	35.02
1.61297	35.10
1.62963	35.24
1.64630	35.44
1.66297	35.71
1.67963	36.07
1.69630	36.43
1.71297	36.77
1.72963	37.11
1.74630	37.45
1.76297	37.78
1.77963	38.09
1.79630	38.43
1.81297	38.78
1.82963	39.11
1.84630	39.45
1.86297	39.76
1.87963	40.10
1.89630	40.43
1.91297	40.76
1.92963	41.07
1.94630	41.38
1.96297	41.72
1.97963	42.05
1.99630	42.37
2.01297	42.68
2.02963	43.02
2.04630	43.34
2.06297	43.68
2.07963	44.01
2.09630	44.33
2.11297	44.66
2.12963	45.00
2.14630	45.34
2.16297	45.64
2.17963	45.98
2.19630	46.31
2.21297	46.63
2.22963	46.95
2.24630	47.26
2.26297	47.60
2.27963	47.92
2.29630	48.25
2.31297	48.60
2.32963	48.95
2.34630	49.24
2.36297	49.53
2.37963	49.68
2.39630	49.70
2.41297	49.71
2.42963	49.71
2.44630	49.72
2.46297	49.74
2.47963	49.76
2.49630	49.77
2.51297	49.78
2.52963	49.78
2.54630	49.81
2.56297	49.81
2.57963	49.82
2.59630	49.81
2.61297	49.82
2.62963	49.82
2.64630	49.83
2.66297	49.85
2.67963	49.85
2.69630	49.85
2.71297	49.86
2.72963	49.86
2.74630	49.85
2.76297	49.85
2.77963	49.86
2.79630	49.86
2.81297	49.87
2.82963	49.88
2.84630	49.89
2.86297	49.91
2.87963	49.92
2.89630	49.93
2.91297	49.94
2.92963	49.94
2.94630	49.95
2.96297	49.96
2.97963	49.97
2.99630	49.99
3.01297	50.00
3.02963	50.01
3.04630	50.02
3.06297	50.04
3.07963	50.04
3.09630	50.03
3.11297	50.04
3.12963	50.05
3.14630	50.06
3.16297	50.07
3.17963	50.08
3.19630	50.09
3.21297	50.10
3.22963	50.11
3.24630	50.09
3.26297	50.09
3.27963	50.07
3.29630	50.08
3.31297	50.08
3.32963	50.09
3.34630	50.08
3.36297	50.09
3.37963	50.09
3.39630	50.10
3.41297	50.09
3.42963	50.10
3.44630	50.09
3.46297	50.08
3.47963	50.08
3.49630	50.08
3.51297	50.08
3.52963	50.08
3.54630	50.09
3.56297	50.10
3.57963	50.11
3.59630	50.10
3.61297	50.09
3.62963	50.07
3.64630	50.07
3.66297	50.07
3.67963	50.07
3.69630	50.07
3.71297	50.06
3.72963	50.05
3.74630	50.04
3.76297	50.03
3.77963	50.03
3.79630	50.03
3.81297	50.03
3.82963	50.04
3.84630	50.04
3.86297	50.04
3.87963	50.04
3.89630	50.03
3.91297	50.03
3.92963	50.03
3.94630	50.02
3.96297	50.03
3.97963	50.03
3.99630	50.03

[Status Trace (Injection Unit Temperature)]
Interval(msec)	1000
# of Points	240
Start Time(min)	0.013
End Time(min)	3.996
Intensity Units	
Intensity Multiplier	1
R.Time (min)	Intensity
0.01297	99.98
0.02963	99.98
0.04630	99.97
0.06297	99.98
0.07963	99.98
0.09630	99.97
0.11297	99.98
0.12963	99.98
0.14630	99.98
0.16297	99.98
0.17963	99.97
0.19630	99.98
0.21297	99.98
0.22963	99.98
0.24630	99.98
0.26297	99.98
0.27963	99.98
0.29630	99.98
0.31297	99.98
0.32963	99.98
0.34630	99.98
0.36297	99.98
0.37963	99.98
0.39630	99.98
0.41297	99.98
0.42963	99.98
0.44630	99.98
0.46297	99.98
0.47963	99.98
0.49630	99.98
0.51297	99.98
0.52963	99.98
0.54630	99.98
0.56297	99.98
0.57963	99.98
0.59630	99.98
0.61297	99.98
0.62963	99.98
0.64630	99.98
0.66297	99.98
0.67963	99.98
0.69630	99.98
0.71297	99.98
0.72963	99.98
0.74630	99.98
0.76297	99.98
0.77963	99.98
0.79630	99.98
0.81297	99.98
0.82963	99.98
0.84630	99.98
0.86297	99.98
0.87963	99.98
0.89630	99.98
0.91297	99.98
0.92963	99.98
0.94630	99.98
0.96297	99.98
0.97963	99.98
0.99630	99.98
1.01297	99.98
1.02963	99.98
1.04630	99.98
1.06297	99.98
1.07963	99.98
1.09630	99.98
1.11297	99.98
1.12963	99.98
1.14630	99.98
1.16297	99.98
1.17963	99.98
1.19630	99.98
1.21297	99.98
1.22963	99.98
1.24630	99.98
1.26297	99.98
1.27963	99.98
1.29630	99.98
1.31297	99.98
1.32963	99.98
1.34630	99.98
1.36297	99.98
1.37963	99.99
1.39630	99.99
1.41297	99.98
1.42963	99.98
1.44630	99.98
1.46297	99.98
1.47963	99.98
1.49630	99.98
1.51297	99.99
1.52963	99.99
1.54630	99.99
1.56297	99.99
1.57963	99.99
1.59630	99.98
1.61297	99.99
1.62963	99.99
1.64630	99.99
1.66297	99.98
1.67963	99.99
1.69630	99.99
1.71297	99.99
1.72963	99.98
1.74630	99.98
1.76297	99.98
1.77963	99.99
1.79630	99.98
1.81297	99.98
1.82963	99.98
1.84630	99.98
1.86297	99.98
1.87963	99.98
1.89630	99.98
1.91297	99.98
1.92963	99.97
1.94630	99.96
1.96297	99.97
1.97963	99.97
1.99630	99.97
2.01297	99.97
2.02963	99.97
2.04630	99.97
2.06297	99.97
2.07963	99.97
2.09630	99.96
2.11297	99.96
2.12963	99.97
2.14630	99.96
2.16297	99.96
2.17963	99.96
2.19630	99.96
2.21297	99.96
2.22963	99.96
2.24630	99.96
2.26297	99.96
2.27963	99.96
2.29630	99.96
2.31297	99.96
2.32963	99.96
2.34630	99.96
2.36297	99.96
2.37963	99.97
2.39630	99.96
2.41297	99.96
2.42963	99.97
2.44630	99.97
2.46297	99.96
2.47963	99.97
2.49630	99.97
2.51297	99.97
2.52963	99.97
2.54630	99.97
2.56297	99.97
2.57963	99.97
2.59630	99.97
2.61297	99.98
2.62963	99.97
2.64630	99.98
2.66297	99.98
2.67963	99.98
2.69630	99.98
2.71297	99.98
2.72963	99.99
2.74630	99.99
2.76297	99.99
2.77963	99.99
2.79630	99.99
2.81297	99.99
2.82963	99.99
2.84630	100.00
2.86297	100.00
2.87963	100.00
2.89630	100.01
2.91297	100.00
2.92963	100.01
2.94630	100.01
2.96297	100.01
2.97963	100.01
2.99630	100.01
3.01297	100.02
3.02963	100.02
3.04630	100.02
3.06297	100.02
3.07963	100.02
3.09630	100.02
3.11297	100.02
3.12963	100.02
3.14630	100.02
3.16297	100.03
3.17963	100.02
3.19630	100.03
3.21297	100.03
3.22963	100.03
3.24630	100.03
3.26297	100.03
3.27963	100.03
3.29630	100.03
3.31297	100.03
3.32963	100.03
3.34630	100.03
3.36297	100.03
3.37963	100.03
3.39630	100.04
3.41297	100.04
3.42963	100.03
3.44630	100.04
3.46297	100.04
3.47963	100.04
3.49630	100.04
3.51297	100.04
3.52963	100.04
3.54630	100.04
3.56297	100.04
3.57963	100.04
3.59630	100.04
3.61297	100.04
3.62963	100.04
3.64630	100.05
3.66297	100.05
3.67963	100.04
3.69630	100.04
3.71297	100.05
3.72963	100.04
3.74630	100.05
3.76297	100.04
3.77963	100.05
3.79630	100.05
3.81297	100.05
3.82963	100.05
3.84630	100.05
3.86297	100.05
3.87963	100.05
3.89630	100.05
3.91297	100.05
3.92963	100.05
3.94630	100.05
3.96297	100.05
3.97963	100.05
3.99630	100.05

[Status Trace (Carrier Gas Pressure)]
Interval(msec)	1000
# of Points	240
Start Time(min)	0.013
End Time(min)	3.996
Intensity Units	
Intensity Multiplier	1
R.Time (min)	Intensity
0.01297	57.95
0.02963	55.25
0.04630	57.77
0.06297	59.78
0.07963	58.73
0.09630	57.99
0.11297	58.00
0.12963	58.01
0.14630	58.01
0.16297	58.00
0.17963	58.00
0.19630	58.00
0.21297	58.00
0.22963	58.00
0.24630	58.00
0.26297	58.00
0.27963	58.00
0.29630	58.00
0.31297	58.00
0.32963	58.00
0.34630	58.00
0.36297	58.00
0.37963	58.00
0.39630	58.00
0.41297	58.00
0.42963	58.00
0.44630	58.00
0.46297	58.00
0.47963	58.00
0.49630	58.00
0.51297	58.00
0.52963	58.00
0.54630	58.00
0.56297	58.00
0.57963	58.00
0.59630	58.00
0.61297	58.00
0.62963	58.00
0.64630	58.00
0.66297	58.00
0.67963	58.00
0.69630	58.00
0.71297	58.00
0.72963	58.00
0.74630	58.00
0.76297	58.00
0.77963	58.00
0.79630	58.00
0.81297	58.00
0.82963	58.00
0.84630	58.00
0.86297	58.00
0.87963	58.00
0.89630	58.00
0.91297	58.00
0.92963	58.00
0.94630	58.00
0.96297	58.00
0.97963	58.00
0.99630	58.00
1.01297	58.00
1.02963	58.00
1.04630	58.00
1.06297	58.00
1.07963	58.00
1.09630	58.00
1.11297	58.00
1.12963	58.00
1.14630	58.00
1.16297	58.00
1.17963	58.00
1.19630	58.00
1.21297	58.00
1.22963	58.00
1.24630	58.00
1.26297	58.00
1.27963	58.00
1.29630	58.00
1.31297	58.00
1.32963	58.00
1.34630	58.00
1.36297	58.00
1.37963	58.00
1.39630	58.00
1.41297	58.00
1.42963	58.00
1.44630	58.00
1.46297	58.00
1.47963	58.00
1.49630	58.00
1.51297	58.00
1.52963	58.00
1.54630	58.00
1.56297	58.00
1.57963	58.00
1.59630	58.00
1.61297	58.00
1.62963	58.00
1.64630	58.00
1.66297	58.00
1.67963	58.01
1.69630	58.00
1.71297	58.00
1.72963	58.00
1.74630	58.00
1.76297	58.00
1.77963	58.00
1.79630	58.00
1.81297	58.00
1.82963	58.00
1.84630	58.00
1.86297	58.00
1.87963	58.00
1.89630	58.00
1.91297	58.00
1.92963	58.00
1.94630	58.00
1.96297	58.00
1.97963	58.00
1.99630	58.00
2.01297	58.00
2.02963	58.00
2.04630	58.00
2.06297	58.00
2.07963	58.00
2.09630	58.00
2.11297	58.00
2.12963	58.00
2.14630	58.00
2.16297	58.00
2.17963	58.00
2.19630	58.00
2.21297	58.00
2.22963	58.00
2.24630	58.00
2.26297	58.00
2.27963	58.00
2.29630	58.00
2.31297	58.00
2.32963	58.00
2.34630	58.00
2.36297	58.00
2.37963	58.00
2.39630	57.99
2.41297	58.00
2.42963	58.00
2.44630	58.00
2.46297	58.00
2.47963	58.00
2.49630	58.00
2.51297	57.99
2.52963	57.98
2.54630	58.00
2.56297	58.00
2.57963	58.00
2.59630	58.00
2.61297	58.00
2.62963	58.00
2.64630	58.00
2.66297	58.00
2.67963	58.00
2.69630	58.00
2.71297	58.00
2.72963	58.00
2.74630	58.00
2.76297	58.00
2.77963	58.00
2.79630	58.00
2.81297	58.00
2.82963	58.00
2.84630	58.00
2.86297	58.00
2.87963	58.00
2.89630	58.00
2.91297	58.00
2.92963	58.00
2.94630	58.00
2.96297	58.00
2.97963	58.00
2.99630	58.00
3.01297	58.00
3.02963	58.00
3.04630	58.00
3.06297	58.00
3.07963	58.00
3.09630	58.00
3.11297	58.00
3.12963	58.00
3.14630	58.00
3.16297	58.00
3.17963	58.00
3.19630	58.00
3.21297	58.00
3.22963	58.00
3.24630	58.00
3.26297	58.00
3.27963	58.00
3.29630	58.00
3.31297	58.00
3.32963	58.00
3.34630	58.00
3.36297	58.00
3.37963	58.00
3.39630	58.00
3.41297	58.00
3.42963	58.00
3.44630	58.00
3.46297	58.00
3.47963	58.00
3.49630	58.00
3.51297	58.00
3.52963	58.00
3.54630	58.00
3.56297	58.00
3.57963	58.00
3.59630	58.00
3.61297	58.00
3.62963	58.00
3.64630	58.00
3.66297	58.00
3.67963	58.00
3.69630	58.00
3.71297	58.00
3.72963	58.00
3.74630	58.00
3.76297	58.00
3.77963	58.00
3.79630	58.00
3.81297	58.00
3.82963	58.00
3.84630	58.00
3.86297	58.00
3.87963	58.00
3.89630	58.00
3.91297	58.00
3.92963	58.00
3.94630	58.00
3.96297	58.00
3.97963	58.00
3.99630	58.00

[Status Trace (Carrier Gas Flow)]
Interval(msec)	1000
# of Points	240
Start Time(min)	0.013
End Time(min)	3.996
Intensity Units	
Intensity Multiplier	1
R.Time (min)	Intensity
0.01297	34.68
0.02963	34.54
0.04630	34.54
0.06297	34.52
0.07963	34.51
0.09630	34.52
0.11297	34.52
0.12963	34.52
0.14630	34.52
0.16297	34.51
0.17963	34.52
0.19630	34.52
0.21297	34.52
0.22963	34.52
0.24630	34.52
0.26297	34.52
0.27963	34.53
0.29630	34.52
0.31297	34.52
0.32963	34.52
0.34630	34.52
0.36297	34.52
0.37963	34.52
0.39630	34.51
0.41297	34.52
0.42963	34.52
0.44630	34.52
0.46297	34.52
0.47963	34.52
0.49630	34.52
0.51297	34.52
0.52963	34.52
0.54630	34.52
0.56297	34.52
0.57963	34.52
0.59630	34.52
0.61297	34.52
0.62963	34.52
0.64630	34.52
0.66297	34.52
0.67963	34.52
0.69630	34.51
0.71297	34.52
0.72963	34.52
0.74630	34.51
0.76297	34.52
0.77963	34.52
0.79630	34.52
0.81297	34.52
0.82963	34.52
0.84630	34.52
0.86297	34.52
0.87963	34.52
0.89630	34.52
0.91297	34.52
0.92963	34.52
0.94630	34.52
0.96297	34.52
0.97963	34.52
0.99630	34.52
1.01297	34.52
1.02963	34.51
1.04630	34.52
1.06297	34.52
1.07963	34.52
1.09630	34.52
1.11297	34.52
1.12963	34.52
1.14630	34.52
1.16297	34.52
1.17963	34.52
1.19630	34.51
1.21297	34.52
1.22963	34.52
1.24630	34.51
1.26297	34.52
1.27963	34.52
1.29630	34.52
1.31297	34.52
1.32963	34.52
1.34630	34.52
1.36297	34.52
1.37963	34.52
1.39630	34.52
1.41297	34.52
1.42963	34.52
1.44630	34.52
1.46297	34.52
1.47963	34.52
1.49630	34.52
1.51297	34.52
1.52963	34.52
1.54630	34.52
1.56297	34.52
1.57963	34.52
1.59630	34.52
1.61297	34.52
1.62963	34.52
1.64630	34.52
1.66297	34.52
1.67963	34.52
1.69630	34.51
1.71297	34.51
1.72963	34.52
1.74630	34.52
1.76297	34.52
1.77963	34.52
1.79630	34.52
1.81297	34.53
1.82963	34.53
1.84630	34.52
1.86297	34.52
1.87963	34.52
1.89630	34.51
1.91297	34.52
1.92963	34.52
1.94630	34.52
1.96297	34.52
1.97963	34.52
1.99630	34.52
2.01297	34.52
2.02963	34.52
2.04630	34.52
2.06297	34.52
2.07963	34.52
2.09630	34.52
2.11297	34.52
2.12963	34.52
2.14630	34.52
2.16297	34.52
2.17963	34.51
2.19630	34.52
2.21297	34.52
2.22963	34.52
2.24630	34.52
2.26297	34.51
2.27963	34.51
2.29630	34.51
2.31297	34.51
2.32963	34.52
2.34630	34.51
2.36297	34.52
2.37963	34.53
2.39630	34.53
2.41297	34.52
2.42963	34.52
2.44630	34.53
2.46297	34.53
2.47963	34.52
2.49630	34.51
2.51297	34.52
2.52963	34.52
2.54630	34.52
2.56297	34.52
2.57963	34.52
2.59630	34.51
2.61297	34.52
2.62963	34.52
2.64630	34.52
2.66297	34.52
2.67963	34.52
2.69630	34.52
2.71297	34.52
2.72963	34.52
2.74630	34.52
2.76297	34.52
2.77963	34.52
2.79630	34.52
2.81297	34.52
2.82963	34.52
2.84630	34.52
2.86297	34.52
2.87963	34.52
2.89630	34.52
2.91297	34.52
2.92963	34.52
2.94630	34.52
2.96297	34.52
2.97963	34.52
2.99630	34.52
3.01297	34.51
3.02963	34.51
3.04630	34.52
3.06297	34.52
3.07963	34.52
3.09630	34.52
3.11297	34.52
3.12963	34.52
3.14630	34.52
3.16297	34.52
3.17963	34.52
3.19630	34.52
3.21297	34.52
3.22963	34.52
3.24630	34.52
3.26297	34.52
3.27963	34.52
3.29630	34.52
3.31297	34.52
3.32963	34.52
3.34630	34.52
3.36297	34.52
3.37963	34.52
3.39630	34.52
3.41297	34.52
3.42963	34.52
3.44630	34.52
3.46297	34.52
3.47963	34.51
3.49630	34.52
3.51297	34.52
3.52963	34.52
3.54630	34.52
3.56297	34.52
3.57963	34.52
3.59630	34.52
3.61297	34.52
3.62963	34.52
3.64630	34.52
3.66297	34.52
3.67963	34.52
3.69630	34.52
3.71297	34.52
3.72963	34.52
3.74630	34.52
3.76297	34.52
3.77963	34.52
3.79630	34.52
3.81297	34.52
3.82963	34.52
3.84630	34.52
3.86297	34.52
3.87963	34.52
3.89630	34.52
3.91297	34.52
3.92963	34.52
3.94630	34.52
3.96297	34.52
3.97963	34.52
3.99630	34.51

[Status Trace (Column Flow)]
Interval(msec)	1000
# of Points	240
Start Time(min)	0.013
End Time(min)	3.996
Intensity Units	
Intensity Multiplier	1
R.Time (min)	Intensity
0.01297	5.51
0.02963	5.20
0.04630	5.49
0.06297	5.73
0.07963	5.61
0.09630	5.52
0.11297	5.52
0.12963	5.52
0.14630	5.52
0.16297	5.52
0.17963	5.52
0.19630	5.52
0.21297	5.52
0.22963	5.52
0.24630	5.52
0.26297	5.52
0.27963	5.52
0.29630	5.52
0.31297	5.52
0.32963	5.52
0.34630	5.52
0.36297	5.52
0.37963	5.52
0.39630	5.52
0.41297	5.52
0.42963	5.52
0.44630	5.52
0.46297	5.52
0.47963	5.52
0.49630	5.52
0.51297	5.52
0.52963	5.52
0.54630	5.52
0.56297	5.52
0.57963	5.52
0.59630	5.52
0.61297	5.52
0.62963	5.52
0.64630	5.52
0.66297	5.52
0.67963	5.52
0.69630	5.52
0.71297	5.52
0.72963	5.52
0.74630	5.52
0.76297	5.52
0.77963	5.52
0.79630	5.52
0.81297	5.52
0.82963	5.52
0.84630	5.52
0.86297	5.52
0.87963	5.52
0.89630	5.52
0.91297	5.52
0.92963	5.52
0.94630	5.52
0.96297	5.52
0.97963	5.52
0.99630	5.52
1.01297	5.52
1.02963	5.52
1.04630	5.52
1.06297	5.52
1.07963	5.52
1.09630	5.52
1.11297	5.52
1.12963	5.52
1.14630	5.52
1.16297	5.52
1.17963	5.52
1.19630	5.52
1.21297	5.52
1.22963	5.52
1.24630	5.52
1.26297	5.52
1.27963	5.52
1.29630	5.52
1.31297	5.52
1.32963	5.52
1.34630	5.52
1.36297	5.52
1.37963	5.52
1.39630	5.52
1.41297	5.52
1.42963	5.52
1.44630	5.52
1.46297	5.52
1.47963	5.52
1.49630	5.52
1.51297	5.52
1.52963	5.52
1.54630	5.52
1.56297	5.52
1.57963	5.52
1.59630	5.52
1.61297	5.52
1.62963	5.51
1.64630	5.51
1.66297	5.50
1.67963	5.49
1.69630	5.48
1.71297	5.47
1.72963	5.46
1.74630	5.45
1.76297	5.44
1.77963	5.43
1.79630	5.42
1.81297	5.40
1.82963	5.39
1.84630	5.38
1.86297	5.37
1.87963	5.36
1.89630	5.35
1.91297	5.34
1.92963	5.34
1.94630	5.33
1.96297	5.32
1.97963	5.31
1.99630	5.30
2.01297	5.29
2.02963	5.28
2.04630	5.27
2.06297	5.26
2.07963	5.25
2.09630	5.24
2.11297	5.23
2.12963	5.22
2.14630	5.21
2.16297	5.20
2.17963	5.19
2.19630	5.18
2.21297	5.17
2.22963	5.16
2.24630	5.16
2.26297	5.15
2.27963	5.14
2.29630	5.13
2.31297	5.12
2.32963	5.11
2.34630	5.10
2.36297	5.09
2.37963	5.09
2.39630	5.09
2.41297	5.09
2.42963	5.09
2.44630	5.09
2.46297	5.09
2.47963	5.09
2.49630	5.08
2.51297	5.08
2.52963	5.08
2.54630	5.08
2.56297	5.08
2.57963	5.08
2.59630	5.08
2.61297	5.08
2.62963	5.08
2.64630	5.08
2.66297	5.08
2.67963	5.08
2.69630	5.08
2.71297	5.08
2.72963	5.08
2.74630	5.08
2.76297	5.08
2.77963	5.08
2.79630	5.08
2.81297	5.08
2.82963	5.08
2.84630	5.08
2.86297	5.08
2.87963	5.08
2.89630	5.08
2.91297	5.08
2.92963	5.08
2.94630	5.08
2.96297	5.08
2.97963	5.08
2.99630	5.08
3.01297	5.08
3.02963	5.08
3.04630	5.08
3.06297	5.08
3.07963	5.08
3.09630	5.08
3.11297	5.08
3.12963	5.08
3.14630	5.08
3.16297	5.08
3.17963	5.08
3.19630	5.08
3.21297	5.08
3.22963	5.08
3.24630	5.08
3.26297	5.08
3.27963	5.08
3.29630	5.08
3.31297	5.08
3.32963	5.08
3.34630	5.08
3.36297	5.08
3.37963	5.08
3.39630	5.08
3.41297	5.08
3.42963	5.08
3.44630	5.08
3.46297	5.08
3.47963	5.08
3.49630	5.08
3.51297	5.08
3.52963	5.08
3.54630	5.08
3.56297	5.08
3.57963	5.08
3.59630	5.08
3.61297	5.08
3.62963	5.08
3.64630	5.08
3.66297	5.08
3.67963	5.08
3.69630	5.08
3.71297	5.08
3.72963	5.08
3.74630	5.08
3.76297	5.08
3.77963	5.08
3.79630	5.08
3.81297	5.08
3.82963	5.08
3.84630	5.08
3.86297	5.08
3.87963	5.08
3.89630	5.08
3.91297	5.08
3.92963	5.08
3.94630	5.08
3.96297	5.08
3.97963	5.08
3.99630	5.08

[Status Trace (Linear Velocity)]
Interval(msec)	1000
# of Points	240
Start Time(min)	0.013
End Time(min)	3.996
Intensity Units	
Intensity Multiplier	1
R.Time (min)	Intensity
0.01297	38.98
0.02963	37.21
0.04630	38.86
0.06297	40.18
0.07963	39.49
0.09630	39.01
0.11297	39.01
0.12963	39.02
0.14630	39.02
0.16297	39.02
0.17963	39.01
0.19630	39.02
0.21297	39.02
0.22963	39.01
0.24630	39.01
0.26297	39.01
0.27963	39.01
0.29630	39.01
0.31297	39.01
0.32963	39.01
0.34630	39.01
0.36297	39.01
0.37963	39.02
0.39630	39.02
0.41297	39.02
0.42963	39.02
0.44630	39.02
0.46297	39.02
0.47963	39.02
0.49630	39.02
0.51297	39.02
0.52963	39.02
0.54630	39.02
0.56297	39.02
0.57963	39.02
0.59630	39.02
0.61297	39.02
0.62963	39.01
0.64630	39.01
0.66297	39.02
0.67963	39.02
0.69630	39.02
0.71297	39.01
0.72963	39.01
0.74630	39.02
0.76297	39.02
0.77963	39.02
0.79630	39.02
0.81297	39.02
0.82963	39.02
0.84630	39.02
0.86297	39.02
0.87963	39.02
0.89630	39.02
0.91297	39.02
0.92963	39.02
0.94630	39.02
0.96297	39.02
0.97963	39.02
0.99630	39.02
1.01297	39.02
1.02963	39.02
1.04630	39.02
1.06297	39.02
1.07963	39.02
1.09630	39.02
1.11297	39.02
1.12963	39.02
1.14630	39.02
1.16297	39.02
1.17963	39.02
1.19630	39.02
1.21297	39.02
1.22963	39.02
1.24630	39.02
1.26297	39.02
1.27963	39.02
1.29630	39.02
1.31297	39.02
1.32963	39.02
1.34630	39.02
1.36297	39.02
1.37963	39.02
1.39630	39.02
1.41297	39.02
1.42963	39.02
1.44630	39.02
1.46297	39.02
1.47963	39.02
1.49630	39.02
1.51297	39.02
1.52963	39.02
1.54630	39.02
1.56297	39.02
1.57963	39.02
1.59630	39.02
1.61297	39.01
1.62963	39.00
1.64630	38.98
1.66297	38.95
1.67963	38.92
1.69630	38.88
1.71297	38.85
1.72963	38.82
1.74630	38.78
1.76297	38.75
1.77963	38.72
1.79630	38.69
1.81297	38.66
1.82963	38.63
1.84630	38.59
1.86297	38.56
1.87963	38.53
1.89630	38.50
1.91297	38.47
1.92963	38.44
1.94630	38.41
1.96297	38.38
1.97963	38.35
1.99630	38.32
2.01297	38.29
2.02963	38.26
2.04630	38.23
2.06297	38.20
2.07963	38.17
2.09630	38.14
2.11297	38.11
2.12963	38.08
2.14630	38.05
2.16297	38.02
2.17963	37.99
2.19630	37.96
2.21297	37.93
2.22963	37.90
2.24630	37.88
2.26297	37.85
2.27963	37.82
2.29630	37.79
2.31297	37.76
2.32963	37.73
2.34630	37.70
2.36297	37.67
2.37963	37.66
2.39630	37.65
2.41297	37.65
2.42963	37.66
2.44630	37.66
2.46297	37.66
2.47963	37.65
2.49630	37.65
2.51297	37.64
2.52963	37.64
2.54630	37.65
2.56297	37.65
2.57963	37.65
2.59630	37.65
2.61297	37.65
2.62963	37.65
2.64630	37.65
2.66297	37.65
2.67963	37.65
2.69630	37.65
2.71297	37.65
2.72963	37.65
2.74630	37.65
2.76297	37.65
2.77963	37.65
2.79630	37.64
2.81297	37.64
2.82963	37.64
2.84630	37.64
2.86297	37.64
2.87963	37.64
2.89630	37.64
2.91297	37.64
2.92963	37.64
2.94630	37.64
2.96297	37.64
2.97963	37.64
2.99630	37.63
3.01297	37.63
3.02963	37.63
3.04630	37.63
3.06297	37.63
3.07963	37.63
3.09630	37.63
3.11297	37.63
3.12963	37.63
3.14630	37.63
3.16297	37.63
3.17963	37.63
3.19630	37.62
3.21297	37.62
3.22963	37.62
3.24630	37.62
3.26297	37.62
3.27963	37.63
3.29630	37.63
3.31297	37.63
3.32963	37.63
3.34630	37.63
3.36297	37.63
3.37963	37.62
3.39630	37.62
3.41297	37.62
3.42963	37.62
3.44630	37.62
3.46297	37.63
3.47963	37.63
3.49630	37.63
3.51297	37.63
3.52963	37.63
3.54630	37.63
3.56297	37.62
3.57963	37.62
3.59630	37.62
3.61297	37.62
3.62963	37.63
3.64630	37.63
3.66297	37.63
3.67963	37.63
3.69630	37.63
3.71297	37.63
3.72963	37.63
3.74630	37.63
3.76297	37.63
3.77963	37.63
3.79630	37.63
3.81297	37.63
3.82963	37.63
3.84630	37.63
3.86297	37.63
3.87963	37.63
3.89630	37.63
3.91297	37.63
3.92963	37.63
3.94630	37.63
3.96297	37.63
3.97963	37.63
3.99630	37.63

