[Header]
Application Name	LabSolutions
Version	5.110
Data File Name	C:\Users\User\Desktop\GC Analyses\Jack\Nachusa Grasslands Sampling\T3 Timepoint July 12th\T3_07122022_081.gcd
Output Date	3/14/2023
Output Time	3:43:35 PM

[File Information]
Type	Data File
Generated	3/13/2023 11:33:32 PM
Generated by	System Administrator
Modified	3/13/2023 11:40:07 PM
Modified by	System Administrator

[Sample Information]
Operator Name	System Administrator
Acquired	3/13/2023 11:36:06 PM
Sample Type	0:Unknown
Level	0
Sample Name	081
Sample ID	081
ISTD Amount1	1
ISTD Amount2	1
ISTD Amount3	1
ISTD Amount4	1
ISTD Amount5	1
ISTD Amount6	1
ISTD Amount7	1
ISTD Amount8	1
ISTD Amount9	1
ISTD Amount10	1
ISTD Amount11	1
ISTD Amount12	1
ISTD Amount13	1
ISTD Amount14	1
ISTD Amount15	1
ISTD Amount16	1
ISTD Amount17	1
ISTD Amount18	1
ISTD Amount19	1
ISTD Amount20	1
ISTD Amount21	1
ISTD Amount22	1
ISTD Amount23	1
ISTD Amount24	1
ISTD Amount25	1
ISTD Amount26	1
ISTD Amount27	1
ISTD Amount28	1
ISTD Amount29	1
ISTD Amount30	1
ISTD Amount31	1
ISTD Amount32	1
Sample Amount	1
Dilution Factor	1
Vial#	80
Injection Volume	1
Injection Count	1
Bar Code	

[Original Files]
Data File	C:\Users\User\Desktop\GC Analyses\Jack\Nachusa Grasslands Sampling\T3 Timepoint July 12th\T3_07122022_081.gcd
Method File	C:\LabSolutions\Data\GHG_4min_2022\ghg3_togas_w_acet_4 min_new_int.gcm
Batch File	C:\LabSolutions\Data\AutoSamplerTesting\T3_07122022.gcb
Report Format File	c:\LabSolutions\System\DEFAULT.lsr

[File Description]


[Configuration]
Instrument Name	C0B7VH3-Instrument1
Instrument #	1
Line #	1
# of Detectors	3
Detector ID	DET#1	DET#2	DET#3
Detector Name	FID	PTCD	ECD
# of Channels	1	1	1

[Peak Table(Ch1)]
# of Peaks	4
Peak#	R.Time	I.Time	F.Time	Area	Height	A/H	Conc.	Mark	ID#	Name	k'	Plate #	Plate Ht.	Tailing	Resolution	Sep.Factor	Area Ratio	Height Ratio	Conc. %	Norm Conc.
1	1.476	1.424	1.534	34722	17148	2.025	245.136	   	1	CO	0.000	9732	15.413	1.284	0.000	0.000	0	0	23.905	23.905
2	1.571	1.538	1.608	3749	2018	1.858	72.487	   	2	CH4	0.065	12532	11.969	1.061	1.644	0.000	0	0	7.069	7.069
3	1.996	1.949	2.367	2820407	1351910	2.086	707.846	   	3	CO2	0.353	17421	8.610	1.339	7.294	5.462	0	0	69.027	69.027
4	3.019	2.895	3.243	434	43	10.082	0.000	   	5	Acetylene	1.046	43186	3.473	1.400	17.249	2.965	0	0	0.000	0.000

[Peak Table(Ch2)]
# of Peaks	0

[Peak Table(Ch3)]
# of Peaks	6
Peak#	R.Time	I.Time	F.Time	Area	Height	A/H	Conc.	Mark	ID#	Name	k'	Plate #	Plate Ht.	Tailing	Resolution	Sep.Factor	Area Ratio	Height Ratio	Conc. %	Norm Conc.
1	2.462	2.337	2.510	2094	689	3.041	0.000	   			0.000	11550	12.987	0.000	0.000	0.000	0	0	0.000	0.000
2	2.532	2.510	2.576	843	314	2.687	0.000	 V 			0.028	8522	17.602	0.000	0.692	0.000	0	0	0.000	0.000
3	2.605	2.576	2.682	511	131	3.908	0.000	 V 			0.058	2443	61.409	0.000	0.458	2.053	0	0	0.000	0.000
4	2.880	2.700	3.118	20448	4870	4.199	0.522	S  	1	N2O	0.170	12743	11.771	1.591	1.758	2.923	0	0	100.000	100.000
5	3.107	3.096	3.118	42	61	0.685	0.000	T  	2	SF6	0.262	317745	0.472	0.984	3.664	1.544	0	0	0.000	0.000
6	3.313	3.122	3.995	23760	782	30.400	0.000	   	2	SF6	0.346	263	571.384	2.254	0.489	1.318	0	0	0.000	0.000

[Compound Results(Ch1)]
# of IDs	6
ID#	Name	R.Time	Area	Height	Conc.	Curve	3rd	2nd	1st	Constant	Area Ratio	Height Ratio	Conc. %	Norm Conc.
1	CO	1.476	34722	17148	245.136	Linear	0.000000e+00	0.000000e+00	1.416423e+002	0.000000e+00	0	0	23.905	23.905
2	CH4	1.571	3749	2018	72.487	Linear	0.000000e+00	0.000000e+00	5.171738e+001	0.000000e+00	0	0	7.069	7.069
3	CO2	1.996	2820407	1351910	707.846	Linear	0.000000e+00	0.000000e+00	3.984494e+003	0.000000e+00	0	0	69.027	69.027
4	Ethylene	0.000	0	0	0.000	Linear	0.000000e+00	0.000000e+00	0.000000e+00	0.000000e+00	0	0	0.000	0.000
5	Acetylene	3.019	434	43	0.000	Linear	0.000000e+00	0.000000e+00	0.000000e+00	0.000000e+00	0	0	0.000	0.000
6	Ethane	0.000	0	0	0.000	Linear	0.000000e+00	0.000000e+00	0.000000e+00	0.000000e+00	0	0	0.000	0.000

[Compound Results(Ch2)]
# of IDs	5
ID#	Name	R.Time	Area	Height	Conc.	Curve	3rd	2nd	1st	Constant	Area Ratio	Height Ratio	Conc. %	Norm Conc.
1	Hydrogen	0.000	0	0	0.000	Linear	0.000000e+00	0.000000e+00	0.000000e+00	0.000000e+00	0	0	0.000	0.000
2	Oxygen	0.000	0	0	0.000	Linear	0.000000e+00	0.000000e+00	0.000000e+00	0.000000e+00	0	0	0.000	0.000
3	Nitrogen	0.000	0	0	0.000	Linear	0.000000e+00	0.000000e+00	0.000000e+00	0.000000e+00	0	0	0.000	0.000
4	Methane	0.000	0	0	0.000	Linear	0.000000e+00	0.000000e+00	0.000000e+00	0.000000e+00	0	0	0.000	0.000
5	Carbon Monoxide	0.000	0	0	0.000	Linear	0.000000e+00	0.000000e+00	0.000000e+00	0.000000e+00	0	0	0.000	0.000

[Compound Results(Ch3)]
# of IDs	2
ID#	Name	R.Time	Area	Height	Conc.	Curve	3rd	2nd	1st	Constant	Area Ratio	Height Ratio	Conc. %	Norm Conc.
1	N2O	2.880	20448	4870	0.522	Linear	0.000000e+00	0.000000e+00	3.915173e+004	0.000000e+00	0	0	100.000	100.000
2	SF6	3.313	23801	842	0.000	Linear	0.000000e+00	0.000000e+00	0.000000e+00	0.000000e+00	0	0	0.000	0.000

[Group Results(Ch1)]
# of Groups	0

[Group Results(Ch2)]
# of Groups	0

[Group Results(Ch3)]
# of Groups	0

[Chromatogram (Ch1)]
Interval(msec)	220
# of Points	1091
Start Time(min)	0.002
End Time(min)	3.998
R.Time (min)	Intensity
0.00167	31
0.00533	41
0.00900	46
0.01267	50
0.01633	49
0.02000	42
0.02367	34
0.02733	27
0.03100	23
0.03467	23
0.03833	21
0.04200	14
0.04567	6
0.04933	3
0.05300	8
0.05667	16
0.06033	19
0.06400	22
0.06767	22
0.07133	21
0.07500	20
0.07867	19
0.08233	17
0.08600	17
0.08967	16
0.09333	18
0.09700	26
0.10067	36
0.10433	42
0.10800	46
0.11167	49
0.11533	44
0.11900	33
0.12267	27
0.12633	31
0.13000	36
0.13367	36
0.13733	33
0.14100	29
0.14467	29
0.14833	31
0.15200	34
0.15567	39
0.15933	44
0.16300	49
0.16667	55
0.17033	59
0.17400	62
0.17767	66
0.18133	68
0.18500	70
0.18867	75
0.19233	79
0.19600	77
0.19967	73
0.20333	69
0.20700	64
0.21067	58
0.21433	52
0.21800	43
0.22167	35
0.22533	27
0.22900	25
0.23267	29
0.23633	33
0.24000	35
0.24367	37
0.24733	40
0.25100	46
0.25467	52
0.25833	59
0.26200	63
0.26567	66
0.26933	67
0.27300	63
0.27667	56
0.28033	54
0.28400	58
0.28767	63
0.29133	72
0.29500	82
0.29867	82
0.30233	74
0.30600	65
0.30967	59
0.31333	62
0.31700	70
0.32067	79
0.32433	91
0.32800	102
0.33167	108
0.33533	112
0.33900	115
0.34267	119
0.34633	120
0.35000	119
0.35367	120
0.35733	127
0.36100	135
0.36467	140
0.36833	141
0.37200	145
0.37567	148
0.37933	151
0.38300	156
0.38667	162
0.39033	167
0.39400	173
0.39767	179
0.40133	180
0.40500	179
0.40867	177
0.41233	173
0.41600	168
0.41967	165
0.42333	161
0.42700	159
0.43067	159
0.43433	155
0.43800	146
0.44167	138
0.44533	134
0.44900	129
0.45267	127
0.45633	126
0.46000	127
0.46367	127
0.46733	125
0.47100	118
0.47467	106
0.47833	92
0.48200	85
0.48567	79
0.48933	75
0.49300	77
0.49667	79
0.50033	81
0.50400	84
0.50767	86
0.51133	85
0.51500	84
0.51867	82
0.52233	82
0.52600	83
0.52967	83
0.53333	79
0.53700	74
0.54067	67
0.54433	62
0.54800	55
0.55167	47
0.55533	45
0.55900	49
0.56267	58
0.56633	64
0.57000	66
0.57367	66
0.57733	65
0.58100	66
0.58467	65
0.58833	58
0.59200	52
0.59567	51
0.59933	54
0.60300	56
0.60667	60
0.61033	66
0.61400	73
0.61767	73
0.62133	69
0.62500	66
0.62867	66
0.63233	68
0.63600	67
0.63967	67
0.64333	68
0.64700	71
0.65067	71
0.65433	65
0.65800	58
0.66167	52
0.66533	46
0.66900	42
0.67267	38
0.67633	32
0.68000	28
0.68367	27
0.68733	33
0.69100	43
0.69467	44
0.69833	42
0.70200	41
0.70567	43
0.70933	46
0.71300	49
0.71667	50
0.72033	49
0.72400	49
0.72767	52
0.73133	61
0.73500	71
0.73867	78
0.74233	81
0.74600	75
0.74967	66
0.75333	57
0.75700	51
0.76067	50
0.76433	44
0.76800	34
0.77167	28
0.77533	26
0.77900	28
0.78267	36
0.78633	46
0.79000	53
0.79367	52
0.79733	44
0.80100	35
0.80467	31
0.80833	33
0.81200	39
0.81567	46
0.81933	54
0.82300	63
0.82667	67
0.83033	63
0.83400	57
0.83767	56
0.84133	57
0.84500	58
0.84867	54
0.85233	49
0.85600	45
0.85967	42
0.86333	43
0.86700	45
0.87067	50
0.87433	52
0.87800	48
0.88167	41
0.88533	40
0.88900	42
0.89267	45
0.89633	46
0.90000	39
0.90367	32
0.90733	31
0.91100	33
0.91467	39
0.91833	47
0.92200	57
0.92567	62
0.92933	64
0.93300	59
0.93667	49
0.94033	39
0.94400	33
0.94767	31
0.95133	29
0.95500	28
0.95867	30
0.96233	37
0.96600	42
0.96967	43
0.97333	43
0.97700	43
0.98067	45
0.98433	47
0.98800	51
0.99167	54
0.99533	56
0.99900	59
1.00267	60
1.00633	59
1.01000	58
1.01367	53
1.01733	47
1.02100	44
1.02467	46
1.02833	52
1.03200	53
1.03567	46
1.03933	36
1.04300	31
1.04667	31
1.05033	40
1.05400	55
1.05767	69
1.06133	77
1.06500	78
1.06867	74
1.07233	71
1.07600	67
1.07967	57
1.08333	47
1.08700	44
1.09067	44
1.09433	50
1.09800	59
1.10167	66
1.10533	68
1.10900	67
1.11267	65
1.11633	60
1.12000	60
1.12367	64
1.12733	69
1.13100	72
1.13467	76
1.13833	78
1.14200	75
1.14567	67
1.14933	58
1.15300	57
1.15667	63
1.16033	72
1.16400	77
1.16767	77
1.17133	72
1.17500	65
1.17867	61
1.18233	61
1.18600	66
1.18967	70
1.19333	71
1.19700	68
1.20067	65
1.20433	59
1.20800	53
1.21167	53
1.21533	55
1.21900	60
1.22267	65
1.22633	67
1.23000	66
1.23367	67
1.23733	70
1.24100	72
1.24467	75
1.24833	78
1.25200	79
1.25567	76
1.25933	71
1.26300	67
1.26667	74
1.27033	86
1.27400	90
1.27767	85
1.28133	80
1.28500	77
1.28867	74
1.29233	71
1.29600	69
1.29967	67
1.30333	62
1.30700	58
1.31067	56
1.31433	55
1.31800	58
1.32167	65
1.32533	75
1.32900	82
1.33267	85
1.33633	83
1.34000	80
1.34367	73
1.34733	66
1.35100	63
1.35467	64
1.35833	67
1.36200	65
1.36567	62
1.36933	58
1.37300	57
1.37667	57
1.38033	61
1.38400	60
1.38767	54
1.39133	48
1.39500	48
1.39867	47
1.40233	49
1.40600	51
1.40967	52
1.41333	48
1.41700	43
1.42067	44
1.42433	52
1.42800	64
1.43167	75
1.43533	81
1.43900	89
1.44267	126
1.44633	276
1.45000	770
1.45367	2119
1.45733	4673
1.46100	8024
1.46467	11386
1.46833	14195
1.47200	16184
1.47567	17197
1.47933	17087
1.48300	15810
1.48667	13602
1.49033	10931
1.49400	8291
1.49767	6010
1.50133	4211
1.50500	2873
1.50867	1919
1.51233	1261
1.51600	819
1.51967	526
1.52333	328
1.52700	192
1.53067	99
1.53433	44
1.53800	27
1.54167	58
1.54533	182
1.54900	442
1.55267	818
1.55633	1227
1.56000	1592
1.56367	1872
1.56733	2040
1.57100	2068
1.57467	1935
1.57833	1663
1.58200	1321
1.58567	981
1.58933	688
1.59300	465
1.59667	305
1.60033	197
1.60400	125
1.60767	78
1.61133	46
1.61500	27
1.61867	14
1.62233	6
1.62600	-0
1.62967	-6
1.63333	-7
1.63700	-9
1.64067	-7
1.64433	-2
1.64800	3
1.65167	3
1.65533	-3
1.65900	-13
1.66267	-21
1.66633	-22
1.67000	-19
1.67367	-17
1.67733	-15
1.68100	-11
1.68467	-8
1.68833	-3
1.69200	1
1.69567	1
1.69933	-2
1.70300	-6
1.70667	-7
1.71033	-3
1.71400	-1
1.71767	-2
1.72133	-3
1.72500	-0
1.72867	7
1.73233	16
1.73600	24
1.73967	29
1.74333	32
1.74700	34
1.75067	31
1.75433	26
1.75800	23
1.76167	21
1.76533	20
1.76900	19
1.77267	18
1.77633	17
1.78000	18
1.78367	22
1.78733	30
1.79100	38
1.79467	42
1.79833	42
1.80200	38
1.80567	33
1.80933	29
1.81300	25
1.81667	23
1.82033	19
1.82400	14
1.82767	12
1.83133	12
1.83500	16
1.83867	19
1.84233	23
1.84600	30
1.84967	43
1.85333	54
1.85700	59
1.86067	62
1.86433	64
1.86800	60
1.87167	56
1.87533	53
1.87900	52
1.88267	56
1.88633	58
1.89000	56
1.89367	51
1.89733	49
1.90100	47
1.90467	46
1.90833	45
1.91200	43
1.91567	46
1.91933	51
1.92300	55
1.92667	61
1.93033	68
1.93400	68
1.93767	66
1.94133	65
1.94500	66
1.94867	73
1.95233	96
1.95600	217
1.95967	987
1.96333	4924
1.96700	20107
1.97067	64811
1.97433	165658
1.97800	340997
1.98167	580453
1.98533	844593
1.98900	1084723
1.99267	1261892
1.99633	1352027
2.00000	1346030
2.00367	1250789
2.00733	1089079
2.01100	892900
2.01467	694130
2.01833	516329
2.02200	371307
2.02567	260816
2.02933	180670
2.03300	124495
2.03667	85995
2.04033	59963
2.04400	42468
2.04767	30707
2.05133	22750
2.05500	17302
2.05867	13515
2.06233	10834
2.06600	8895
2.06967	7462
2.07333	6376
2.07700	5528
2.08067	4856
2.08433	4314
2.08800	3870
2.09167	3500
2.09533	3191
2.09900	2928
2.10267	2704
2.10633	2511
2.11000	2346
2.11367	2195
2.11733	2062
2.12100	1950
2.12467	1849
2.12833	1752
2.13200	1658
2.13567	1575
2.13933	1504
2.14300	1444
2.14667	1387
2.15033	1328
2.15400	1270
2.15767	1218
2.16133	1175
2.16500	1143
2.16867	1110
2.17233	1073
2.17600	1044
2.17967	1018
2.18333	991
2.18700	962
2.19067	933
2.19433	904
2.19800	875
2.20167	848
2.20533	825
2.20900	806
2.21267	793
2.21633	787
2.22000	778
2.22367	767
2.22733	752
2.23100	736
2.23467	721
2.23833	707
2.24200	691
2.24567	674
2.24933	661
2.25300	653
2.25667	647
2.26033	639
2.26400	629
2.26767	618
2.27133	608
2.27500	595
2.27867	582
2.28233	570
2.28600	560
2.28967	552
2.29333	550
2.29700	551
2.30067	552
2.30433	553
2.30800	549
2.31167	541
2.31533	532
2.31900	525
2.32267	518
2.32633	510
2.33000	501
2.33367	492
2.33733	485
2.34100	484
2.34467	489
2.34833	498
2.35200	498
2.35567	488
2.35933	474
2.36300	461
2.36667	455
2.37033	460
2.37400	464
2.37767	464
2.38133	462
2.38500	464
2.38867	465
2.39233	466
2.39600	466
2.39967	465
2.40333	463
2.40700	464
2.41067	469
2.41433	473
2.41800	468
2.42167	461
2.42533	456
2.42900	452
2.43267	446
2.43633	443
2.44000	443
2.44367	445
2.44733	443
2.45100	438
2.45467	440
2.45833	446
2.46200	446
2.46567	442
2.46933	434
2.47300	426
2.47667	426
2.48033	431
2.48400	435
2.48767	435
2.49133	430
2.49500	423
2.49867	418
2.50233	410
2.50600	405
2.50967	407
2.51333	412
2.51700	418
2.52067	424
2.52433	430
2.52800	440
2.53167	447
2.53533	447
2.53900	443
2.54267	439
2.54633	439
2.55000	437
2.55367	434
2.55733	427
2.56100	418
2.56467	409
2.56833	404
2.57200	400
2.57567	398
2.57933	401
2.58300	403
2.58667	402
2.59033	401
2.59400	403
2.59767	405
2.60133	409
2.60500	416
2.60867	424
2.61233	432
2.61600	434
2.61967	427
2.62333	414
2.62700	399
2.63067	384
2.63433	376
2.63800	380
2.64167	388
2.64533	398
2.64900	405
2.65267	406
2.65633	398
2.66000	389
2.66367	386
2.66733	385
2.67100	387
2.67467	399
2.67833	411
2.68200	417
2.68567	419
2.68933	417
2.69300	412
2.69667	408
2.70033	406
2.70400	401
2.70767	395
2.71133	393
2.71500	399
2.71867	401
2.72233	402
2.72600	407
2.72967	413
2.73333	418
2.73700	420
2.74067	418
2.74433	415
2.74800	409
2.75167	402
2.75533	393
2.75900	385
2.76267	383
2.76633	386
2.77000	394
2.77367	402
2.77733	406
2.78100	408
2.78467	407
2.78833	407
2.79200	410
2.79567	415
2.79933	419
2.80300	424
2.80667	425
2.81033	422
2.81400	416
2.81767	410
2.82133	409
2.82500	413
2.82867	419
2.83233	422
2.83600	425
2.83967	430
2.84333	435
2.84700	436
2.85067	435
2.85433	433
2.85800	437
2.86167	442
2.86533	441
2.86900	435
2.87267	424
2.87633	413
2.88000	401
2.88367	394
2.88733	396
2.89100	408
2.89467	419
2.89833	427
2.90200	434
2.90567	439
2.90933	440
2.91300	441
2.91667	439
2.92033	433
2.92400	429
2.92767	428
2.93133	429
2.93500	432
2.93867	437
2.94233	442
2.94600	439
2.94967	434
2.95333	433
2.95700	432
2.96067	434
2.96433	438
2.96800	442
2.97167	442
2.97533	439
2.97900	432
2.98267	424
2.98633	418
2.99000	417
2.99367	418
2.99733	417
3.00100	419
3.00467	421
3.00833	426
3.01200	434
3.01567	442
3.01933	447
3.02300	444
3.02667	437
3.03033	429
3.03400	423
3.03767	421
3.04133	422
3.04500	423
3.04867	425
3.05233	427
3.05600	424
3.05967	421
3.06333	424
3.06700	428
3.07067	430
3.07433	430
3.07800	430
3.08167	426
3.08533	421
3.08900	416
3.09267	413
3.09633	411
3.10000	413
3.10367	413
3.10733	411
3.11100	414
3.11467	415
3.11833	417
3.12200	418
3.12567	415
3.12933	410
3.13300	405
3.13667	405
3.14033	404
3.14400	399
3.14767	396
3.15133	396
3.15500	397
3.15867	397
3.16233	397
3.16600	400
3.16967	404
3.17333	404
3.17700	404
3.18067	409
3.18433	416
3.18800	417
3.19167	415
3.19533	411
3.19900	403
3.20267	397
3.20633	395
3.21000	392
3.21367	390
3.21733	390
3.22100	389
3.22467	389
3.22833	389
3.23200	385
3.23567	385
3.23933	382
3.24300	375
3.24667	369
3.25033	366
3.25400	366
3.25767	370
3.26133	376
3.26500	381
3.26867	381
3.27233	383
3.27600	388
3.27967	392
3.28333	392
3.28700	389
3.29067	384
3.29433	381
3.29800	380
3.30167	381
3.30533	379
3.30900	378
3.31267	378
3.31633	379
3.32000	379
3.32367	377
3.32733	374
3.33100	371
3.33467	370
3.33833	373
3.34200	377
3.34567	382
3.34933	383
3.35300	383
3.35667	382
3.36033	383
3.36400	386
3.36767	387
3.37133	383
3.37500	376
3.37867	366
3.38233	359
3.38600	358
3.38967	359
3.39333	360
3.39700	359
3.40067	355
3.40433	351
3.40800	349
3.41167	350
3.41533	352
3.41900	350
3.42267	347
3.42633	347
3.43000	347
3.43367	346
3.43733	349
3.44100	353
3.44467	353
3.44833	354
3.45200	354
3.45567	349
3.45933	344
3.46300	341
3.46667	342
3.47033	344
3.47400	345
3.47767	343
3.48133	345
3.48500	345
3.48867	345
3.49233	345
3.49600	343
3.49967	342
3.50333	344
3.50700	345
3.51067	345
3.51433	346
3.51800	349
3.52167	354
3.52533	361
3.52900	361
3.53267	356
3.53633	347
3.54000	343
3.54367	347
3.54733	349
3.55100	346
3.55467	338
3.55833	334
3.56200	330
3.56567	326
3.56933	319
3.57300	314
3.57667	313
3.58033	314
3.58400	313
3.58767	310
3.59133	310
3.59500	310
3.59867	309
3.60233	310
3.60600	310
3.60967	311
3.61333	314
3.61700	316
3.62067	321
3.62433	324
3.62800	326
3.63167	326
3.63533	323
3.63900	323
3.64267	329
3.64633	336
3.65000	339
3.65367	340
3.65733	340
3.66100	337
3.66467	326
3.66833	319
3.67200	320
3.67567	320
3.67933	318
3.68300	321
3.68667	320
3.69033	316
3.69400	311
3.69767	307
3.70133	304
3.70500	301
3.70867	295
3.71233	290
3.71600	290
3.71967	294
3.72333	301
3.72700	313
3.73067	318
3.73433	315
3.73800	313
3.74167	317
3.74533	321
3.74900	321
3.75267	315
3.75633	306
3.76000	300
3.76367	299
3.76733	300
3.77100	299
3.77467	296
3.77833	293
3.78200	285
3.78567	276
3.78933	270
3.79300	269
3.79667	272
3.80033	280
3.80400	292
3.80767	302
3.81133	308
3.81500	310
3.81867	308
3.82233	303
3.82600	299
3.82967	297
3.83333	294
3.83700	288
3.84067	281
3.84433	278
3.84800	277
3.85167	281
3.85533	286
3.85900	287
3.86267	292
3.86633	304
3.87000	312
3.87367	309
3.87733	302
3.88100	290
3.88467	277
3.88833	270
3.89200	265
3.89567	265
3.89933	271
3.90300	281
3.90667	290
3.91033	292
3.91400	286
3.91767	277
3.92133	268
3.92500	263
3.92867	264
3.93233	267
3.93600	263
3.93967	255
3.94333	253
3.94700	261
3.95067	276
3.95433	286
3.95800	285
3.96167	276
3.96533	267
3.96900	263
3.97267	267
3.97633	271
3.98000	269
3.98367	263
3.98733	257
3.99100	254
3.99467	256
3.99833	262

[Chromatogram (Ch2)]
Interval(msec)	220
# of Points	1091
Start Time(min)	0.002
End Time(min)	3.998
R.Time (min)	Intensity
0.00167	1
0.00533	1
0.00900	1
0.01267	1
0.01633	1
0.02000	1
0.02367	0
0.02733	1
0.03100	1
0.03467	0
0.03833	0
0.04200	-0
0.04567	-0
0.04933	-0
0.05300	-0
0.05667	0
0.06033	0
0.06400	0
0.06767	0
0.07133	1
0.07500	1
0.07867	1
0.08233	1
0.08600	2
0.08967	2
0.09333	2
0.09700	3
0.10067	3
0.10433	3
0.10800	3
0.11167	3
0.11533	3
0.11900	3
0.12267	4
0.12633	4
0.13000	4
0.13367	4
0.13733	4
0.14100	4
0.14467	4
0.14833	4
0.15200	4
0.15567	4
0.15933	4
0.16300	4
0.16667	4
0.17033	4
0.17400	4
0.17767	4
0.18133	4
0.18500	5
0.18867	5
0.19233	5
0.19600	5
0.19967	4
0.20333	4
0.20700	4
0.21067	3
0.21433	3
0.21800	2
0.22167	2
0.22533	2
0.22900	2
0.23267	1
0.23633	1
0.24000	1
0.24367	1
0.24733	1
0.25100	1
0.25467	0
0.25833	0
0.26200	0
0.26567	0
0.26933	0
0.27300	0
0.27667	0
0.28033	0
0.28400	0
0.28767	0
0.29133	0
0.29500	0
0.29867	0
0.30233	0
0.30600	0
0.30967	0
0.31333	0
0.31700	0
0.32067	0
0.32433	0
0.32800	-0
0.33167	-0
0.33533	0
0.33900	0
0.34267	1
0.34633	1
0.35000	2
0.35367	2
0.35733	2
0.36100	2
0.36467	3
0.36833	3
0.37200	3
0.37567	4
0.37933	4
0.38300	4
0.38667	4
0.39033	4
0.39400	4
0.39767	4
0.40133	4
0.40500	4
0.40867	3
0.41233	4
0.41600	4
0.41967	4
0.42333	3
0.42700	3
0.43067	3
0.43433	3
0.43800	2
0.44167	2
0.44533	2
0.44900	2
0.45267	2
0.45633	2
0.46000	2
0.46367	2
0.46733	2
0.47100	1
0.47467	1
0.47833	1
0.48200	1
0.48567	1
0.48933	1
0.49300	1
0.49667	2
0.50033	2
0.50400	3
0.50767	4
0.51133	4
0.51500	4
0.51867	4
0.52233	4
0.52600	3
0.52967	3
0.53333	3
0.53700	2
0.54067	2
0.54433	2
0.54800	1
0.55167	1
0.55533	1
0.55900	1
0.56267	1
0.56633	1
0.57000	1
0.57367	1
0.57733	1
0.58100	1
0.58467	2
0.58833	2
0.59200	1
0.59567	1
0.59933	1
0.60300	1
0.60667	1
0.61033	1
0.61400	2
0.61767	2
0.62133	2
0.62500	3
0.62867	3
0.63233	3
0.63600	3
0.63967	3
0.64333	4
0.64700	4
0.65067	4
0.65433	4
0.65800	4
0.66167	4
0.66533	5
0.66900	5
0.67267	5
0.67633	5
0.68000	5
0.68367	5
0.68733	5
0.69100	5
0.69467	5
0.69833	5
0.70200	5
0.70567	5
0.70933	4
0.71300	4
0.71667	4
0.72033	4
0.72400	4
0.72767	4
0.73133	4
0.73500	3
0.73867	3
0.74233	3
0.74600	2
0.74967	2
0.75333	2
0.75700	1
0.76067	1
0.76433	1
0.76800	1
0.77167	0
0.77533	0
0.77900	0
0.78267	0
0.78633	0
0.79000	-0
0.79367	-0
0.79733	-1
0.80100	-1
0.80467	-1
0.80833	-1
0.81200	-1
0.81567	-1
0.81933	-1
0.82300	-1
0.82667	-0
0.83033	-0
0.83400	0
0.83767	0
0.84133	0
0.84500	0
0.84867	0
0.85233	0
0.85600	0
0.85967	0
0.86333	0
0.86700	0
0.87067	1
0.87433	1
0.87800	2
0.88167	2
0.88533	3
0.88900	3
0.89267	3
0.89633	3
0.90000	3
0.90367	3
0.90733	3
0.91100	3
0.91467	3
0.91833	3
0.92200	3
0.92567	4
0.92933	4
0.93300	4
0.93667	4
0.94033	5
0.94400	5
0.94767	5
0.95133	5
0.95500	4
0.95867	4
0.96233	4
0.96600	3
0.96967	3
0.97333	2
0.97700	2
0.98067	1
0.98433	1
0.98800	0
0.99167	0
0.99533	0
0.99900	0
1.00267	0
1.00633	0
1.01000	0
1.01367	0
1.01733	0
1.02100	0
1.02467	0
1.02833	0
1.03200	0
1.03567	0
1.03933	0
1.04300	0
1.04667	0
1.05033	0
1.05400	0
1.05767	-0
1.06133	-0
1.06500	-0
1.06867	-0
1.07233	-0
1.07600	-0
1.07967	0
1.08333	1
1.08700	1
1.09067	2
1.09433	2
1.09800	3
1.10167	3
1.10533	3
1.10900	4
1.11267	4
1.11633	4
1.12000	4
1.12367	3
1.12733	3
1.13100	3
1.13467	3
1.13833	3
1.14200	3
1.14567	3
1.14933	3
1.15300	3
1.15667	3
1.16033	3
1.16400	3
1.16767	3
1.17133	3
1.17500	3
1.17867	4
1.18233	4
1.18600	4
1.18967	5
1.19333	5
1.19700	5
1.20067	5
1.20433	4
1.20800	4
1.21167	3
1.21533	3
1.21900	2
1.22267	1
1.22633	1
1.23000	0
1.23367	-0
1.23733	-1
1.24100	-1
1.24467	-0
1.24833	-0
1.25200	-0
1.25567	0
1.25933	0
1.26300	0
1.26667	1
1.27033	1
1.27400	1
1.27767	1
1.28133	1
1.28500	1
1.28867	1
1.29233	1
1.29600	1
1.29967	1
1.30333	1
1.30700	1
1.31067	1
1.31433	1
1.31800	1
1.32167	0
1.32533	0
1.32900	0
1.33267	0
1.33633	1
1.34000	1
1.34367	1
1.34733	1
1.35100	1
1.35467	2
1.35833	2
1.36200	2
1.36567	2
1.36933	2
1.37300	2
1.37667	2
1.38033	2
1.38400	3
1.38767	3
1.39133	3
1.39500	3
1.39867	3
1.40233	2
1.40600	2
1.40967	2
1.41333	2
1.41700	2
1.42067	3
1.42433	3
1.42800	3
1.43167	3
1.43533	3
1.43900	3
1.44267	3
1.44633	3
1.45000	3
1.45367	3
1.45733	3
1.46100	3
1.46467	3
1.46833	3
1.47200	3
1.47567	3
1.47933	2
1.48300	2
1.48667	2
1.49033	1
1.49400	1
1.49767	1
1.50133	1
1.50500	1
1.50867	1
1.51233	1
1.51600	1
1.51967	1
1.52333	1
1.52700	1
1.53067	1
1.53433	1
1.53800	0
1.54167	0
1.54533	0
1.54900	0
1.55267	0
1.55633	-0
1.56000	-0
1.56367	-1
1.56733	-1
1.57100	-1
1.57467	-2
1.57833	-2
1.58200	-2
1.58567	-2
1.58933	-2
1.59300	-2
1.59667	-3
1.60033	-3
1.60400	-4
1.60767	-5
1.61133	-7
1.61500	-9
1.61867	-12
1.62233	-14
1.62600	-17
1.62967	-20
1.63333	-23
1.63700	-26
1.64067	-30
1.64433	-33
1.64800	-37
1.65167	-41
1.65533	-45
1.65900	-49
1.66267	-52
1.66633	-56
1.67000	-60
1.67367	-64
1.67733	-68
1.68100	-73
1.68467	-78
1.68833	-82
1.69200	-87
1.69567	-90
1.69933	-94
1.70300	-96
1.70667	-99
1.71033	-100
1.71400	-102
1.71767	-103
1.72133	-103
1.72500	-104
1.72867	-104
1.73233	-103
1.73600	-103
1.73967	-103
1.74333	-103
1.74700	-103
1.75067	-102
1.75433	-101
1.75800	-100
1.76167	-100
1.76533	-100
1.76900	-101
1.77267	-102
1.77633	-103
1.78000	-105
1.78367	-106
1.78733	-107
1.79100	-108
1.79467	-109
1.79833	-110
1.80200	-111
1.80567	-111
1.80933	-111
1.81300	-111
1.81667	-111
1.82033	-111
1.82400	-111
1.82767	-111
1.83133	-111
1.83500	-111
1.83867	-111
1.84233	-111
1.84600	-110
1.84967	-110
1.85333	-110
1.85700	-110
1.86067	-110
1.86433	-110
1.86800	-111
1.87167	-111
1.87533	-111
1.87900	-111
1.88267	-112
1.88633	-112
1.89000	-112
1.89367	-112
1.89733	-111
1.90100	-111
1.90467	-111
1.90833	-110
1.91200	-110
1.91567	-110
1.91933	-110
1.92300	-109
1.92667	-109
1.93033	-108
1.93400	-108
1.93767	-108
1.94133	-107
1.94500	-107
1.94867	-107
1.95233	-107
1.95600	-106
1.95967	-106
1.96333	-106
1.96700	-106
1.97067	-105
1.97433	-105
1.97800	-104
1.98167	-104
1.98533	-104
1.98900	-104
1.99267	-103
1.99633	-103
2.00000	-103
2.00367	-103
2.00733	-103
2.01100	-103
2.01467	-103
2.01833	-103
2.02200	-103
2.02567	-103
2.02933	-103
2.03300	-102
2.03667	-102
2.04033	-101
2.04400	-101
2.04767	-100
2.05133	-99
2.05500	-98
2.05867	-97
2.06233	-97
2.06600	-96
2.06967	-96
2.07333	-95
2.07700	-95
2.08067	-95
2.08433	-95
2.08800	-95
2.09167	-95
2.09533	-95
2.09900	-95
2.10267	-95
2.10633	-95
2.11000	-95
2.11367	-95
2.11733	-96
2.12100	-96
2.12467	-95
2.12833	-95
2.13200	-95
2.13567	-95
2.13933	-94
2.14300	-94
2.14667	-93
2.15033	-92
2.15400	-92
2.15767	-91
2.16133	-90
2.16500	-90
2.16867	-90
2.17233	-89
2.17600	-89
2.17967	-88
2.18333	-87
2.18700	-87
2.19067	-87
2.19433	-87
2.19800	-87
2.20167	-87
2.20533	-88
2.20900	-88
2.21267	-88
2.21633	-88
2.22000	-87
2.22367	-87
2.22733	-87
2.23100	-87
2.23467	-86
2.23833	-86
2.24200	-85
2.24567	-84
2.24933	-83
2.25300	-83
2.25667	-82
2.26033	-82
2.26400	-82
2.26767	-81
2.27133	-81
2.27500	-81
2.27867	-80
2.28233	-80
2.28600	-79
2.28967	-79
2.29333	-78
2.29700	-78
2.30067	-78
2.30433	-77
2.30800	-77
2.31167	-77
2.31533	-78
2.31900	-78
2.32267	-78
2.32633	-78
2.33000	-78
2.33367	-77
2.33733	-77
2.34100	-76
2.34467	-74
2.34833	-73
2.35200	-72
2.35567	-71
2.35933	-70
2.36300	-68
2.36667	-66
2.37033	-64
2.37400	-61
2.37767	-58
2.38133	-55
2.38500	-51
2.38867	-47
2.39233	-42
2.39600	-38
2.39967	-34
2.40333	-29
2.40700	-25
2.41067	-22
2.41433	-18
2.41800	-15
2.42167	-12
2.42533	-10
2.42900	-8
2.43267	-6
2.43633	-5
2.44000	-4
2.44367	-3
2.44733	-3
2.45100	-2
2.45467	-2
2.45833	-1
2.46200	0
2.46567	1
2.46933	2
2.47300	3
2.47667	4
2.48033	5
2.48400	5
2.48767	6
2.49133	7
2.49500	8
2.49867	9
2.50233	9
2.50600	10
2.50967	10
2.51333	11
2.51700	12
2.52067	12
2.52433	13
2.52800	13
2.53167	14
2.53533	15
2.53900	15
2.54267	16
2.54633	16
2.55000	17
2.55367	17
2.55733	17
2.56100	17
2.56467	17
2.56833	18
2.57200	18
2.57567	18
2.57933	18
2.58300	18
2.58667	18
2.59033	18
2.59400	18
2.59767	18
2.60133	18
2.60500	19
2.60867	19
2.61233	18
2.61600	18
2.61967	18
2.62333	18
2.62700	18
2.63067	18
2.63433	18
2.63800	19
2.64167	19
2.64533	20
2.64900	20
2.65267	20
2.65633	20
2.66000	21
2.66367	21
2.66733	21
2.67100	21
2.67467	22
2.67833	22
2.68200	22
2.68567	22
2.68933	22
2.69300	22
2.69667	23
2.70033	23
2.70400	24
2.70767	24
2.71133	25
2.71500	25
2.71867	26
2.72233	26
2.72600	27
2.72967	28
2.73333	28
2.73700	29
2.74067	30
2.74433	30
2.74800	31
2.75167	31
2.75533	30
2.75900	30
2.76267	30
2.76633	29
2.77000	29
2.77367	29
2.77733	28
2.78100	28
2.78467	28
2.78833	28
2.79200	28
2.79567	28
2.79933	28
2.80300	29
2.80667	29
2.81033	29
2.81400	30
2.81767	30
2.82133	30
2.82500	31
2.82867	31
2.83233	31
2.83600	31
2.83967	30
2.84333	29
2.84700	26
2.85067	22
2.85433	16
2.85800	6
2.86167	-6
2.86533	-23
2.86900	-43
2.87267	-68
2.87633	-98
2.88000	-132
2.88367	-171
2.88733	-213
2.89100	-259
2.89467	-307
2.89833	-359
2.90200	-412
2.90567	-466
2.90933	-522
2.91300	-577
2.91667	-633
2.92033	-688
2.92400	-743
2.92767	-795
2.93133	-847
2.93500	-900
2.93867	-957
2.94233	-1015
2.94600	-1064
2.94967	-1093
2.95333	-1098
2.95700	-1076
2.96067	-1032
2.96433	-971
2.96800	-898
2.97167	-819
2.97533	-738
2.97900	-658
2.98267	-582
2.98633	-510
2.99000	-445
2.99367	-385
2.99733	-332
3.00100	-285
3.00467	-244
3.00833	-207
3.01200	-176
3.01567	-148
3.01933	-125
3.02300	-105
3.02667	-87
3.03033	-72
3.03400	-59
3.03767	-48
3.04133	-39
3.04500	-31
3.04867	-24
3.05233	-18
3.05600	-13
3.05967	-8
3.06333	-5
3.06700	-1
3.07067	1
3.07433	4
3.07800	6
3.08167	7
3.08533	9
3.08900	10
3.09267	12
3.09633	13
3.10000	14
3.10367	14
3.10733	15
3.11100	16
3.11467	17
3.11833	17
3.12200	17
3.12567	18
3.12933	18
3.13300	18
3.13667	19
3.14033	19
3.14400	19
3.14767	20
3.15133	20
3.15500	20
3.15867	21
3.16233	21
3.16600	21
3.16967	22
3.17333	22
3.17700	22
3.18067	23
3.18433	23
3.18800	23
3.19167	23
3.19533	24
3.19900	24
3.20267	25
3.20633	25
3.21000	25
3.21367	25
3.21733	25
3.22100	25
3.22467	25
3.22833	25
3.23200	25
3.23567	25
3.23933	26
3.24300	26
3.24667	26
3.25033	26
3.25400	26
3.25767	26
3.26133	26
3.26500	26
3.26867	26
3.27233	26
3.27600	26
3.27967	27
3.28333	27
3.28700	27
3.29067	28
3.29433	28
3.29800	28
3.30167	28
3.30533	29
3.30900	29
3.31267	29
3.31633	29
3.32000	29
3.32367	29
3.32733	29
3.33100	28
3.33467	28
3.33833	28
3.34200	28
3.34567	28
3.34933	28
3.35300	28
3.35667	28
3.36033	28
3.36400	28
3.36767	28
3.37133	28
3.37500	28
3.37867	28
3.38233	28
3.38600	28
3.38967	28
3.39333	28
3.39700	28
3.40067	28
3.40433	28
3.40800	28
3.41167	28
3.41533	28
3.41900	28
3.42267	28
3.42633	28
3.43000	28
3.43367	28
3.43733	28
3.44100	29
3.44467	29
3.44833	29
3.45200	29
3.45567	29
3.45933	29
3.46300	30
3.46667	30
3.47033	30
3.47400	30
3.47767	30
3.48133	30
3.48500	30
3.48867	31
3.49233	31
3.49600	31
3.49967	31
3.50333	31
3.50700	31
3.51067	32
3.51433	32
3.51800	32
3.52167	32
3.52533	33
3.52900	32
3.53267	32
3.53633	32
3.54000	32
3.54367	32
3.54733	32
3.55100	32
3.55467	32
3.55833	32
3.56200	32
3.56567	32
3.56933	32
3.57300	32
3.57667	31
3.58033	31
3.58400	31
3.58767	31
3.59133	31
3.59500	31
3.59867	31
3.60233	31
3.60600	31
3.60967	31
3.61333	32
3.61700	32
3.62067	32
3.62433	32
3.62800	32
3.63167	32
3.63533	32
3.63900	32
3.64267	32
3.64633	32
3.65000	32
3.65367	32
3.65733	32
3.66100	32
3.66467	31
3.66833	31
3.67200	30
3.67567	30
3.67933	30
3.68300	30
3.68667	30
3.69033	30
3.69400	30
3.69767	30
3.70133	30
3.70500	30
3.70867	30
3.71233	30
3.71600	30
3.71967	29
3.72333	29
3.72700	29
3.73067	29
3.73433	29
3.73800	29
3.74167	29
3.74533	29
3.74900	29
3.75267	29
3.75633	29
3.76000	29
3.76367	28
3.76733	28
3.77100	28
3.77467	28
3.77833	28
3.78200	28
3.78567	28
3.78933	28
3.79300	28
3.79667	28
3.80033	28
3.80400	28
3.80767	28
3.81133	29
3.81500	29
3.81867	29
3.82233	30
3.82600	30
3.82967	30
3.83333	30
3.83700	30
3.84067	30
3.84433	30
3.84800	30
3.85167	30
3.85533	30
3.85900	30
3.86267	30
3.86633	30
3.87000	30
3.87367	30
3.87733	30
3.88100	30
3.88467	30
3.88833	30
3.89200	30
3.89567	29
3.89933	29
3.90300	29
3.90667	29
3.91033	29
3.91400	29
3.91767	29
3.92133	29
3.92500	29
3.92867	29
3.93233	29
3.93600	29
3.93967	29
3.94333	29
3.94700	29
3.95067	29
3.95433	29
3.95800	29
3.96167	29
3.96533	29
3.96900	29
3.97267	29
3.97633	30
3.98000	30
3.98367	30
3.98733	30
3.99100	31
3.99467	31
3.99833	31

[Chromatogram (Ch3)]
Interval(msec)	220
# of Points	1091
Start Time(min)	0.002
End Time(min)	3.998
R.Time (min)	Intensity
0.00167	0
0.00533	-1
0.00900	-2
0.01267	-4
0.01633	-5
0.02000	-5
0.02367	-4
0.02733	-4
0.03100	-4
0.03467	-4
0.03833	-4
0.04200	-3
0.04567	1
0.04933	2
0.05300	2
0.05667	2
0.06033	-0
0.06400	-0
0.06767	3
0.07133	3
0.07500	1
0.07867	0
0.08233	-1
0.08600	1
0.08967	2
0.09333	1
0.09700	-0
0.10067	1
0.10433	1
0.10800	2
0.11167	2
0.11533	0
0.11900	1
0.12267	1
0.12633	3
0.13000	3
0.13367	2
0.13733	1
0.14100	1
0.14467	2
0.14833	1
0.15200	1
0.15567	0
0.15933	1
0.16300	1
0.16667	-1
0.17033	-2
0.17400	-2
0.17767	-3
0.18133	-4
0.18500	-3
0.18867	-2
0.19233	-0
0.19600	1
0.19967	2
0.20333	2
0.20700	-0
0.21067	-1
0.21433	-2
0.21800	-3
0.22167	-4
0.22533	-7
0.22900	-9
0.23267	-10
0.23633	-9
0.24000	-9
0.24367	-9
0.24733	-8
0.25100	-7
0.25467	-6
0.25833	-5
0.26200	-3
0.26567	-2
0.26933	-4
0.27300	-5
0.27667	-6
0.28033	-8
0.28400	-7
0.28767	-6
0.29133	-7
0.29500	-6
0.29867	-6
0.30233	-7
0.30600	-5
0.30967	-5
0.31333	-5
0.31700	-6
0.32067	-4
0.32433	-4
0.32800	-6
0.33167	-8
0.33533	-10
0.33900	-9
0.34267	-7
0.34633	-5
0.35000	-4
0.35367	-4
0.35733	-4
0.36100	-5
0.36467	-5
0.36833	-5
0.37200	-4
0.37567	-2
0.37933	-2
0.38300	-3
0.38667	-3
0.39033	-2
0.39400	0
0.39767	-0
0.40133	-1
0.40500	-0
0.40867	-0
0.41233	0
0.41600	2
0.41967	2
0.42333	1
0.42700	-1
0.43067	-2
0.43433	-4
0.43800	-6
0.44167	-6
0.44533	-4
0.44900	-3
0.45267	-2
0.45633	0
0.46000	1
0.46367	-1
0.46733	-2
0.47100	-2
0.47467	-1
0.47833	-1
0.48200	-2
0.48567	-4
0.48933	-5
0.49300	-4
0.49667	-4
0.50033	-4
0.50400	-6
0.50767	-5
0.51133	-4
0.51500	-4
0.51867	-5
0.52233	-8
0.52600	-10
0.52967	-11
0.53333	-9
0.53700	-9
0.54067	-8
0.54433	-8
0.54800	-6
0.55167	-5
0.55533	-6
0.55900	-4
0.56267	-4
0.56633	-5
0.57000	-6
0.57367	-6
0.57733	-4
0.58100	-2
0.58467	-1
0.58833	-1
0.59200	-2
0.59567	-2
0.59933	-3
0.60300	-4
0.60667	-3
0.61033	-2
0.61400	-1
0.61767	-1
0.62133	-1
0.62500	0
0.62867	2
0.63233	3
0.63600	2
0.63967	2
0.64333	1
0.64700	-3
0.65067	-4
0.65433	-5
0.65800	-5
0.66167	-4
0.66533	-2
0.66900	-2
0.67267	-2
0.67633	-2
0.68000	-1
0.68367	1
0.68733	-0
0.69100	-1
0.69467	-2
0.69833	1
0.70200	4
0.70567	4
0.70933	2
0.71300	1
0.71667	-2
0.72033	-5
0.72400	-5
0.72767	-3
0.73133	-0
0.73500	1
0.73867	-1
0.74233	0
0.74600	2
0.74967	3
0.75333	2
0.75700	1
0.76067	1
0.76433	2
0.76800	5
0.77167	6
0.77533	5
0.77900	5
0.78267	7
0.78633	9
0.79000	9
0.79367	10
0.79733	8
0.80100	6
0.80467	6
0.80833	6
0.81200	5
0.81567	4
0.81933	4
0.82300	6
0.82667	7
0.83033	7
0.83400	7
0.83767	7
0.84133	9
0.84500	11
0.84867	10
0.85233	10
0.85600	9
0.85967	8
0.86333	7
0.86700	7
0.87067	6
0.87433	7
0.87800	8
0.88167	7
0.88533	6
0.88900	4
0.89267	3
0.89633	3
0.90000	5
0.90367	5
0.90733	5
0.91100	4
0.91467	4
0.91833	4
0.92200	4
0.92567	6
0.92933	5
0.93300	5
0.93667	6
0.94033	6
0.94400	6
0.94767	6
0.95133	6
0.95500	6
0.95867	5
0.96233	4
0.96600	4
0.96967	3
0.97333	1
0.97700	-1
0.98067	-2
0.98433	-3
0.98800	-4
0.99167	-1
0.99533	2
0.99900	4
1.00267	5
1.00633	6
1.01000	6
1.01367	7
1.01733	7
1.02100	7
1.02467	9
1.02833	10
1.03200	10
1.03567	9
1.03933	8
1.04300	6
1.04667	6
1.05033	6
1.05400	5
1.05767	4
1.06133	5
1.06500	6
1.06867	6
1.07233	7
1.07600	8
1.07967	8
1.08333	8
1.08700	9
1.09067	10
1.09433	11
1.09800	12
1.10167	10
1.10533	10
1.10900	10
1.11267	10
1.11633	9
1.12000	8
1.12367	8
1.12733	9
1.13100	11
1.13467	13
1.13833	15
1.14200	17
1.14567	17
1.14933	15
1.15300	14
1.15667	15
1.16033	13
1.16400	11
1.16767	10
1.17133	9
1.17500	8
1.17867	7
1.18233	6
1.18600	6
1.18967	4
1.19333	5
1.19700	7
1.20067	8
1.20433	9
1.20800	8
1.21167	6
1.21533	6
1.21900	7
1.22267	11
1.22633	14
1.23000	16
1.23367	14
1.23733	11
1.24100	10
1.24467	9
1.24833	9
1.25200	11
1.25567	10
1.25933	9
1.26300	9
1.26667	10
1.27033	11
1.27400	12
1.27767	12
1.28133	10
1.28500	9
1.28867	8
1.29233	6
1.29600	6
1.29967	5
1.30333	7
1.30700	8
1.31067	10
1.31433	11
1.31800	12
1.32167	12
1.32533	11
1.32900	11
1.33267	12
1.33633	14
1.34000	14
1.34367	12
1.34733	13
1.35100	16
1.35467	17
1.35833	17
1.36200	16
1.36567	16
1.36933	17
1.37300	16
1.37667	15
1.38033	14
1.38400	12
1.38767	12
1.39133	12
1.39500	10
1.39867	10
1.40233	11
1.40600	12
1.40967	11
1.41333	11
1.41700	11
1.42067	12
1.42433	13
1.42800	14
1.43167	12
1.43533	11
1.43900	11
1.44267	11
1.44633	12
1.45000	14
1.45367	15
1.45733	17
1.46100	19
1.46467	19
1.46833	20
1.47200	22
1.47567	23
1.47933	21
1.48300	19
1.48667	18
1.49033	16
1.49400	17
1.49767	17
1.50133	17
1.50500	18
1.50867	19
1.51233	21
1.51600	22
1.51967	23
1.52333	21
1.52700	18
1.53067	17
1.53433	18
1.53800	19
1.54167	20
1.54533	20
1.54900	20
1.55267	21
1.55633	20
1.56000	19
1.56367	19
1.56733	19
1.57100	19
1.57467	21
1.57833	25
1.58200	27
1.58567	26
1.58933	26
1.59300	24
1.59667	23
1.60033	21
1.60400	18
1.60767	17
1.61133	18
1.61500	22
1.61867	25
1.62233	25
1.62600	25
1.62967	24
1.63333	24
1.63700	24
1.64067	24
1.64433	21
1.64800	21
1.65167	23
1.65533	23
1.65900	24
1.66267	26
1.66633	30
1.67000	33
1.67367	33
1.67733	33
1.68100	33
1.68467	33
1.68833	35
1.69200	37
1.69567	37
1.69933	39
1.70300	39
1.70667	40
1.71033	42
1.71400	43
1.71767	45
1.72133	45
1.72500	43
1.72867	43
1.73233	42
1.73600	40
1.73967	40
1.74333	41
1.74700	42
1.75067	42
1.75433	44
1.75800	45
1.76167	46
1.76533	46
1.76900	46
1.77267	45
1.77633	44
1.78000	45
1.78367	47
1.78733	48
1.79100	50
1.79467	51
1.79833	51
1.80200	52
1.80567	51
1.80933	51
1.81300	53
1.81667	55
1.82033	56
1.82400	56
1.82767	55
1.83133	54
1.83500	54
1.83867	54
1.84233	55
1.84600	57
1.84967	58
1.85333	58
1.85700	59
1.86067	61
1.86433	62
1.86800	63
1.87167	63
1.87533	63
1.87900	62
1.88267	62
1.88633	63
1.89000	64
1.89367	67
1.89733	69
1.90100	71
1.90467	72
1.90833	74
1.91200	76
1.91567	77
1.91933	77
1.92300	75
1.92667	74
1.93033	77
1.93400	78
1.93767	78
1.94133	80
1.94500	82
1.94867	86
1.95233	87
1.95600	85
1.95967	83
1.96333	82
1.96700	82
1.97067	84
1.97433	87
1.97800	89
1.98167	89
1.98533	91
1.98900	93
1.99267	94
1.99633	94
2.00000	95
2.00367	96
2.00733	98
2.01100	100
2.01467	102
2.01833	101
2.02200	103
2.02567	105
2.02933	106
2.03300	108
2.03667	110
2.04033	110
2.04400	114
2.04767	118
2.05133	118
2.05500	119
2.05867	121
2.06233	120
2.06600	121
2.06967	122
2.07333	123
2.07700	122
2.08067	122
2.08433	122
2.08800	122
2.09167	121
2.09533	122
2.09900	124
2.10267	127
2.10633	129
2.11000	132
2.11367	135
2.11733	136
2.12100	137
2.12467	140
2.12833	142
2.13200	143
2.13567	144
2.13933	145
2.14300	145
2.14667	147
2.15033	149
2.15400	152
2.15767	153
2.16133	153
2.16500	154
2.16867	156
2.17233	158
2.17600	159
2.17967	160
2.18333	162
2.18700	165
2.19067	168
2.19433	171
2.19800	173
2.20167	175
2.20533	175
2.20900	176
2.21267	178
2.21633	180
2.22000	181
2.22367	181
2.22733	182
2.23100	186
2.23467	189
2.23833	191
2.24200	189
2.24567	188
2.24933	188
2.25300	188
2.25667	189
2.26033	191
2.26400	195
2.26767	200
2.27133	203
2.27500	203
2.27867	201
2.28233	201
2.28600	201
2.28967	203
2.29333	208
2.29700	212
2.30067	214
2.30433	215
2.30800	217
2.31167	220
2.31533	224
2.31900	227
2.32267	228
2.32633	226
2.33000	227
2.33367	230
2.33733	231
2.34100	232
2.34467	234
2.34833	236
2.35200	237
2.35567	238
2.35933	240
2.36300	241
2.36667	241
2.37033	242
2.37400	242
2.37767	244
2.38133	246
2.38500	246
2.38867	242
2.39233	242
2.39600	245
2.39967	250
2.40333	253
2.40700	254
2.41067	256
2.41433	261
2.41800	266
2.42167	267
2.42533	268
2.42900	271
2.43267	273
2.43633	273
2.44000	276
2.44367	329
2.44733	477
2.45100	639
2.45467	771
2.45833	845
2.46200	845
2.46567	797
2.46933	736
2.47300	685
2.47667	653
2.48033	629
2.48400	596
2.48767	549
2.49133	499
2.49500	449
2.49867	408
2.50233	379
2.50600	360
2.50967	354
2.51333	360
2.51700	375
2.52067	397
2.52433	418
2.52800	429
2.53167	428
2.53533	413
2.53900	386
2.54267	352
2.54633	318
2.55000	289
2.55367	263
2.55733	242
2.56100	225
2.56467	210
2.56833	201
2.57200	196
2.57567	193
2.57933	193
2.58300	193
2.58667	194
2.59033	196
2.59400	199
2.59767	199
2.60133	201
2.60500	201
2.60867	198
2.61233	192
2.61600	184
2.61967	176
2.62333	165
2.62700	156
2.63067	146
2.63433	136
2.63800	127
2.64167	119
2.64533	109
2.64900	98
2.65267	88
2.65633	79
2.66000	70
2.66367	59
2.66733	51
2.67100	44
2.67467	36
2.67833	30
2.68200	24
2.68567	19
2.68933	16
2.69300	15
2.69667	16
2.70033	18
2.70400	19
2.70767	22
2.71133	26
2.71500	31
2.71867	34
2.72233	37
2.72600	43
2.72967	49
2.73333	55
2.73700	58
2.74067	62
2.74433	65
2.74800	68
2.75167	72
2.75533	75
2.75900	77
2.76267	79
2.76633	81
2.77000	85
2.77367	90
2.77733	95
2.78100	99
2.78467	102
2.78833	106
2.79200	113
2.79567	121
2.79933	128
2.80300	133
2.80667	137
2.81033	143
2.81400	148
2.81767	156
2.82133	167
2.82500	185
2.82867	216
2.83233	279
2.83600	394
2.83967	580
2.84333	858
2.84700	1234
2.85067	1705
2.85433	2251
2.85800	2838
2.86167	3420
2.86533	3948
2.86900	4382
2.87267	4689
2.87633	4852
2.88000	4876
2.88367	4776
2.88733	4577
2.89100	4303
2.89467	3985
2.89833	3645
2.90200	3301
2.90567	2967
2.90933	2652
2.91300	2358
2.91667	2089
2.92033	1846
2.92400	1629
2.92767	1434
2.93133	1265
2.93500	1117
2.93867	986
2.94233	872
2.94600	772
2.94967	686
2.95333	609
2.95700	542
2.96067	485
2.96433	435
2.96800	394
2.97167	357
2.97533	322
2.97900	293
2.98267	268
2.98633	248
2.99000	230
2.99367	215
2.99733	202
3.00100	190
3.00467	180
3.00833	172
3.01200	162
3.01567	156
3.01933	151
3.02300	148
3.02667	146
3.03033	143
3.03400	141
3.03767	140
3.04133	137
3.04500	134
3.04867	134
3.05233	132
3.05600	132
3.05967	131
3.06333	129
3.06700	126
3.07067	123
3.07433	123
3.07800	124
3.08167	124
3.08533	123
3.08900	121
3.09267	121
3.09633	122
3.10000	123
3.10367	124
3.10733	117
3.11100	80
3.11467	26
3.11833	-10
3.12200	-15
3.12567	3
3.12933	41
3.13300	94
3.13667	156
3.14033	223
3.14400	290
3.14767	353
3.15133	412
3.15500	465
3.15867	509
3.16233	550
3.16600	586
3.16967	616
3.17333	641
3.17700	663
3.18067	679
3.18433	694
3.18800	706
3.19167	717
3.19533	726
3.19900	732
3.20267	738
3.20633	746
3.21000	755
3.21367	762
3.21733	765
3.22100	769
3.22467	776
3.22833	784
3.23200	790
3.23567	794
3.23933	799
3.24300	806
3.24667	812
3.25033	817
3.25400	821
3.25767	826
3.26133	833
3.26500	840
3.26867	845
3.27233	852
3.27600	857
3.27967	862
3.28333	868
3.28700	873
3.29067	877
3.29433	883
3.29800	888
3.30167	894
3.30533	898
3.30900	902
3.31267	905
3.31633	906
3.32000	907
3.32367	908
3.32733	909
3.33100	910
3.33467	911
3.33833	912
3.34200	914
3.34567	915
3.34933	916
3.35300	916
3.35667	915
3.36033	914
3.36400	913
3.36767	913
3.37133	914
3.37500	917
3.37867	917
3.38233	916
3.38600	916
3.38967	917
3.39333	917
3.39700	917
3.40067	917
3.40433	916
3.40800	914
3.41167	912
3.41533	910
3.41900	909
3.42267	910
3.42633	909
3.43000	905
3.43367	904
3.43733	900
3.44100	896
3.44467	892
3.44833	888
3.45200	888
3.45567	886
3.45933	881
3.46300	878
3.46667	875
3.47033	870
3.47400	866
3.47767	861
3.48133	859
3.48500	855
3.48867	851
3.49233	849
3.49600	846
3.49967	845
3.50333	845
3.50700	843
3.51067	839
3.51433	837
3.51800	834
3.52167	831
3.52533	830
3.52900	827
3.53267	824
3.53633	820
3.54000	818
3.54367	818
3.54733	820
3.55100	822
3.55467	824
3.55833	826
3.56200	826
3.56567	824
3.56933	822
3.57300	819
3.57667	817
3.58033	817
3.58400	816
3.58767	815
3.59133	815
3.59500	814
3.59867	811
3.60233	809
3.60600	808
3.60967	806
3.61333	803
3.61700	800
3.62067	797
3.62433	794
3.62800	793
3.63167	791
3.63533	789
3.63900	789
3.64267	788
3.64633	787
3.65000	786
3.65367	783
3.65733	781
3.66100	780
3.66467	778
3.66833	775
3.67200	773
3.67567	771
3.67933	769
3.68300	767
3.68667	766
3.69033	765
3.69400	761
3.69767	759
3.70133	759
3.70500	757
3.70867	755
3.71233	753
3.71600	750
3.71967	748
3.72333	746
3.72700	745
3.73067	744
3.73433	743
3.73800	742
3.74167	741
3.74533	738
3.74900	735
3.75267	732
3.75633	731
3.76000	731
3.76367	732
3.76733	730
3.77100	726
3.77467	723
3.77833	722
3.78200	722
3.78567	721
3.78933	719
3.79300	717
3.79667	713
3.80033	711
3.80400	709
3.80767	708
3.81133	705
3.81500	703
3.81867	703
3.82233	701
3.82600	697
3.82967	693
3.83333	690
3.83700	688
3.84067	685
3.84433	683
3.84800	685
3.85167	686
3.85533	684
3.85900	683
3.86267	681
3.86633	676
3.87000	669
3.87367	664
3.87733	662
3.88100	661
3.88467	661
3.88833	661
3.89200	659
3.89567	656
3.89933	653
3.90300	651
3.90667	650
3.91033	649
3.91400	650
3.91767	651
3.92133	649
3.92500	647
3.92867	646
3.93233	646
3.93600	645
3.93967	641
3.94333	637
3.94700	636
3.95067	636
3.95433	636
3.95800	634
3.96167	634
3.96533	634
3.96900	634
3.97267	632
3.97633	631
3.98000	628
3.98367	625
3.98733	623
3.99100	622
3.99467	620
3.99833	617

[Status Trace (Column Oven Temperature)]
Interval(msec)	1000
# of Points	240
Start Time(min)	0.006
End Time(min)	3.990
Intensity Units	
Intensity Multiplier	1
R.Time (min)	Intensity
0.00630	35.05
0.02297	35.05
0.03963	35.06
0.05630	35.06
0.07297	35.06
0.08963	35.07
0.10630	35.06
0.12297	35.05
0.13963	35.05
0.15630	35.02
0.17297	35.02
0.18963	35.01
0.20630	35.01
0.22297	35.00
0.23963	35.00
0.25630	35.01
0.27297	35.02
0.28963	35.03
0.30630	35.04
0.32297	35.05
0.33963	35.06
0.35630	35.05
0.37297	35.03
0.38963	35.02
0.40630	35.01
0.42297	35.01
0.43963	35.01
0.45630	35.01
0.47297	35.00
0.48963	35.01
0.50630	35.00
0.52297	34.99
0.53963	35.00
0.55630	35.01
0.57297	35.00
0.58963	35.02
0.60630	35.03
0.62297	35.01
0.63963	35.00
0.65630	34.98
0.67297	34.97
0.68963	34.98
0.70630	34.97
0.72297	34.96
0.73963	34.97
0.75630	34.99
0.77297	35.00
0.78963	35.00
0.80630	35.01
0.82297	35.02
0.83963	35.02
0.85630	35.02
0.87297	35.01
0.88963	35.00
0.90630	35.00
0.92297	35.00
0.93963	35.00
0.95630	34.99
0.97297	35.00
0.98963	35.01
1.00630	35.01
1.02297	35.01
1.03963	35.01
1.05630	35.02
1.07297	35.01
1.08963	35.01
1.10630	35.01
1.12297	35.00
1.13963	35.01
1.15630	35.00
1.17297	34.98
1.18963	34.97
1.20630	34.98
1.22297	34.99
1.23963	34.99
1.25630	34.98
1.27297	34.99
1.28963	34.99
1.30630	35.00
1.32297	35.00
1.33963	35.00
1.35630	35.00
1.37297	34.99
1.38963	34.99
1.40630	34.98
1.42297	34.98
1.43963	34.97
1.45630	34.96
1.47297	34.97
1.48963	34.97
1.50630	34.97
1.52297	34.98
1.53963	34.98
1.55630	34.98
1.57297	34.99
1.58963	35.02
1.60630	35.07
1.62297	35.20
1.63963	35.38
1.65630	35.63
1.67297	35.94
1.68963	36.32
1.70630	36.68
1.72297	37.02
1.73963	37.33
1.75630	37.61
1.77297	37.95
1.78963	38.28
1.80630	38.63
1.82297	38.96
1.83963	39.29
1.85630	39.63
1.87297	39.96
1.88963	40.30
1.90630	40.63
1.92297	40.95
1.93963	41.29
1.95630	41.61
1.97297	41.93
1.98963	42.24
2.00630	42.57
2.02297	42.91
2.03963	43.23
2.05630	43.55
2.07297	43.87
2.08963	44.19
2.10630	44.52
2.12297	44.85
2.13963	45.18
2.15630	45.52
2.17297	45.84
2.18963	46.16
2.20630	46.50
2.22297	46.84
2.23963	47.16
2.25630	47.50
2.27297	47.82
2.28963	48.15
2.30630	48.49
2.32297	48.83
2.33963	49.15
2.35630	49.42
2.37297	49.60
2.38963	49.66
2.40630	49.66
2.42297	49.67
2.43963	49.67
2.45630	49.68
2.47297	49.68
2.48963	49.69
2.50630	49.71
2.52297	49.71
2.53963	49.73
2.55630	49.75
2.57297	49.76
2.58963	49.78
2.60630	49.80
2.62297	49.83
2.63963	49.84
2.65630	49.84
2.67297	49.85
2.68963	49.87
2.70630	49.86
2.72297	49.86
2.73963	49.84
2.75630	49.87
2.77297	49.88
2.78963	49.88
2.80630	49.86
2.82297	49.85
2.83963	49.87
2.85630	49.89
2.87297	49.91
2.88963	49.92
2.90630	49.94
2.92297	49.95
2.93963	49.96
2.95630	49.97
2.97297	49.98
2.98963	49.99
3.00630	50.01
3.02297	50.01
3.03963	50.02
3.05630	50.02
3.07297	50.03
3.08963	50.04
3.10630	50.05
3.12297	50.05
3.13963	50.06
3.15630	50.07
3.17297	50.08
3.18963	50.07
3.20630	50.08
3.22297	50.09
3.23963	50.09
3.25630	50.09
3.27297	50.09
3.28963	50.08
3.30630	50.08
3.32297	50.09
3.33963	50.09
3.35630	50.09
3.37297	50.09
3.38963	50.09
3.40630	50.10
3.42297	50.10
3.43963	50.11
3.45630	50.12
3.47297	50.11
3.48963	50.10
3.50630	50.08
3.52297	50.07
3.53963	50.06
3.55630	50.04
3.57297	50.04
3.58963	50.03
3.60630	50.03
3.62297	50.02
3.63963	50.03
3.65630	50.03
3.67297	50.03
3.68963	50.02
3.70630	50.03
3.72297	50.03
3.73963	50.04
3.75630	50.04
3.77297	50.05
3.78963	50.06
3.80630	50.06
3.82297	50.06
3.83963	50.07
3.85630	50.07
3.87297	50.06
3.88963	50.06
3.90630	50.05
3.92297	50.06
3.93963	50.07
3.95630	50.06
3.97297	50.06
3.98963	50.06

[Status Trace (Injection Unit Temperature)]
Interval(msec)	1000
# of Points	240
Start Time(min)	0.006
End Time(min)	3.990
Intensity Units	
Intensity Multiplier	1
R.Time (min)	Intensity
0.00630	99.97
0.02297	99.98
0.03963	99.98
0.05630	99.98
0.07297	99.98
0.08963	99.98
0.10630	99.98
0.12297	99.98
0.13963	99.98
0.15630	99.97
0.17297	99.98
0.18963	99.98
0.20630	99.98
0.22297	99.98
0.23963	99.98
0.25630	99.98
0.27297	99.97
0.28963	99.98
0.30630	99.98
0.32297	99.98
0.33963	99.98
0.35630	99.98
0.37297	99.98
0.38963	99.98
0.40630	99.98
0.42297	99.99
0.43963	99.98
0.45630	99.98
0.47297	99.98
0.48963	99.98
0.50630	99.98
0.52297	99.98
0.53963	99.98
0.55630	99.98
0.57297	99.98
0.58963	99.98
0.60630	99.98
0.62297	99.98
0.63963	99.99
0.65630	99.99
0.67297	99.98
0.68963	99.98
0.70630	99.98
0.72297	99.98
0.73963	99.98
0.75630	99.98
0.77297	99.98
0.78963	99.98
0.80630	99.98
0.82297	99.98
0.83963	99.98
0.85630	99.98
0.87297	99.98
0.88963	99.98
0.90630	99.98
0.92297	99.98
0.93963	99.98
0.95630	99.99
0.97297	99.98
0.98963	99.99
1.00630	99.98
1.02297	99.99
1.03963	99.99
1.05630	99.99
1.07297	99.99
1.08963	99.98
1.10630	99.98
1.12297	99.99
1.13963	99.99
1.15630	99.98
1.17297	99.99
1.18963	99.98
1.20630	99.99
1.22297	99.98
1.23963	99.99
1.25630	99.98
1.27297	99.99
1.28963	99.98
1.30630	99.98
1.32297	99.99
1.33963	99.99
1.35630	99.99
1.37297	99.99
1.38963	99.98
1.40630	99.99
1.42297	99.98
1.43963	99.99
1.45630	99.98
1.47297	99.98
1.48963	99.99
1.50630	99.99
1.52297	99.99
1.53963	99.98
1.55630	99.98
1.57297	99.98
1.58963	99.98
1.60630	99.99
1.62297	99.99
1.63963	99.99
1.65630	99.99
1.67297	99.99
1.68963	99.99
1.70630	99.99
1.72297	99.99
1.73963	99.98
1.75630	99.98
1.77297	99.99
1.78963	99.99
1.80630	99.99
1.82297	99.99
1.83963	99.98
1.85630	99.99
1.87297	99.98
1.88963	99.98
1.90630	99.99
1.92297	99.98
1.93963	99.98
1.95630	99.98
1.97297	99.98
1.98963	99.98
2.00630	99.98
2.02297	99.98
2.03963	99.98
2.05630	99.98
2.07297	99.97
2.08963	99.97
2.10630	99.97
2.12297	99.97
2.13963	99.97
2.15630	99.97
2.17297	99.97
2.18963	99.97
2.20630	99.97
2.22297	99.97
2.23963	99.98
2.25630	99.97
2.27297	99.97
2.28963	99.97
2.30630	99.97
2.32297	99.97
2.33963	99.97
2.35630	99.97
2.37297	99.97
2.38963	99.97
2.40630	99.97
2.42297	99.97
2.43963	99.97
2.45630	99.97
2.47297	99.97
2.48963	99.98
2.50630	99.98
2.52297	99.98
2.53963	99.97
2.55630	99.98
2.57297	99.97
2.58963	99.98
2.60630	99.98
2.62297	99.98
2.63963	99.98
2.65630	99.98
2.67297	99.98
2.68963	99.99
2.70630	99.99
2.72297	99.98
2.73963	99.98
2.75630	99.99
2.77297	99.99
2.78963	99.99
2.80630	99.99
2.82297	99.99
2.83963	99.99
2.85630	100.00
2.87297	100.00
2.88963	100.00
2.90630	100.00
2.92297	100.00
2.93963	100.00
2.95630	100.01
2.97297	100.01
2.98963	100.01
3.00630	100.01
3.02297	100.01
3.03963	100.01
3.05630	100.02
3.07297	100.02
3.08963	100.02
3.10630	100.02
3.12297	100.02
3.13963	100.02
3.15630	100.02
3.17297	100.02
3.18963	100.02
3.20630	100.03
3.22297	100.03
3.23963	100.03
3.25630	100.03
3.27297	100.03
3.28963	100.03
3.30630	100.03
3.32297	100.03
3.33963	100.03
3.35630	100.03
3.37297	100.03
3.38963	100.03
3.40630	100.03
3.42297	100.04
3.43963	100.03
3.45630	100.03
3.47297	100.04
3.48963	100.03
3.50630	100.04
3.52297	100.04
3.53963	100.04
3.55630	100.03
3.57297	100.04
3.58963	100.04
3.60630	100.04
3.62297	100.04
3.63963	100.04
3.65630	100.04
3.67297	100.04
3.68963	100.04
3.70630	100.04
3.72297	100.04
3.73963	100.04
3.75630	100.05
3.77297	100.05
3.78963	100.04
3.80630	100.05
3.82297	100.04
3.83963	100.04
3.85630	100.04
3.87297	100.04
3.88963	100.05
3.90630	100.04
3.92297	100.04
3.93963	100.05
3.95630	100.05
3.97297	100.04
3.98963	100.04

[Status Trace (Carrier Gas Pressure)]
Interval(msec)	1000
# of Points	240
Start Time(min)	0.006
End Time(min)	3.990
Intensity Units	
Intensity Multiplier	1
R.Time (min)	Intensity
0.00630	58.00
0.02297	55.56
0.03963	56.86
0.05630	59.08
0.07297	59.54
0.08963	58.11
0.10630	57.98
0.12297	58.01
0.13963	58.01
0.15630	58.01
0.17297	58.00
0.18963	58.00
0.20630	58.00
0.22297	58.00
0.23963	58.00
0.25630	58.00
0.27297	58.00
0.28963	58.00
0.30630	58.00
0.32297	58.00
0.33963	58.00
0.35630	58.00
0.37297	58.00
0.38963	58.00
0.40630	58.00
0.42297	58.00
0.43963	58.00
0.45630	58.00
0.47297	58.00
0.48963	58.00
0.50630	58.00
0.52297	58.00
0.53963	58.00
0.55630	58.00
0.57297	58.00
0.58963	58.00
0.60630	58.00
0.62297	58.00
0.63963	58.00
0.65630	58.00
0.67297	58.00
0.68963	58.00
0.70630	58.00
0.72297	58.00
0.73963	58.00
0.75630	58.00
0.77297	58.00
0.78963	58.00
0.80630	58.00
0.82297	58.00
0.83963	58.00
0.85630	58.00
0.87297	58.00
0.88963	58.00
0.90630	58.00
0.92297	58.00
0.93963	58.00
0.95630	58.00
0.97297	58.00
0.98963	58.00
1.00630	58.00
1.02297	58.00
1.03963	58.00
1.05630	58.00
1.07297	58.00
1.08963	58.00
1.10630	58.00
1.12297	58.00
1.13963	58.00
1.15630	58.00
1.17297	58.00
1.18963	58.00
1.20630	58.00
1.22297	58.00
1.23963	58.00
1.25630	58.00
1.27297	58.00
1.28963	58.00
1.30630	58.00
1.32297	58.00
1.33963	58.00
1.35630	58.00
1.37297	58.00
1.38963	58.00
1.40630	58.00
1.42297	58.00
1.43963	58.00
1.45630	58.00
1.47297	58.00
1.48963	58.00
1.50630	58.00
1.52297	58.00
1.53963	58.00
1.55630	58.00
1.57297	58.00
1.58963	58.00
1.60630	58.00
1.62297	58.00
1.63963	58.00
1.65630	58.00
1.67297	58.01
1.68963	58.01
1.70630	58.00
1.72297	58.00
1.73963	58.00
1.75630	58.00
1.77297	58.00
1.78963	58.00
1.80630	58.00
1.82297	58.00
1.83963	58.00
1.85630	58.00
1.87297	58.00
1.88963	58.00
1.90630	58.00
1.92297	58.00
1.93963	58.00
1.95630	58.00
1.97297	58.00
1.98963	58.00
2.00630	58.00
2.02297	58.00
2.03963	58.00
2.05630	58.00
2.07297	58.00
2.08963	58.00
2.10630	58.00
2.12297	58.00
2.13963	58.00
2.15630	58.00
2.17297	58.00
2.18963	58.00
2.20630	58.00
2.22297	58.00
2.23963	58.00
2.25630	58.00
2.27297	58.00
2.28963	58.00
2.30630	58.00
2.32297	58.00
2.33963	58.00
2.35630	58.00
2.37297	58.00
2.38963	57.99
2.40630	57.99
2.42297	58.00
2.43963	58.00
2.45630	58.00
2.47297	58.00
2.48963	58.00
2.50630	57.99
2.52297	57.99
2.53963	58.00
2.55630	58.00
2.57297	58.00
2.58963	58.00
2.60630	58.00
2.62297	58.00
2.63963	58.00
2.65630	58.00
2.67297	58.00
2.68963	58.00
2.70630	58.00
2.72297	58.00
2.73963	58.00
2.75630	58.00
2.77297	58.00
2.78963	58.00
2.80630	58.00
2.82297	58.00
2.83963	58.00
2.85630	58.00
2.87297	58.00
2.88963	58.00
2.90630	58.00
2.92297	58.00
2.93963	58.00
2.95630	58.00
2.97297	58.00
2.98963	58.00
3.00630	58.00
3.02297	58.00
3.03963	58.00
3.05630	58.00
3.07297	58.00
3.08963	58.00
3.10630	58.00
3.12297	58.00
3.13963	58.00
3.15630	58.00
3.17297	58.00
3.18963	58.00
3.20630	58.00
3.22297	58.00
3.23963	58.00
3.25630	58.00
3.27297	58.00
3.28963	58.00
3.30630	58.00
3.32297	58.00
3.33963	58.00
3.35630	58.00
3.37297	58.00
3.38963	58.00
3.40630	58.00
3.42297	58.00
3.43963	58.00
3.45630	58.00
3.47297	58.00
3.48963	58.00
3.50630	58.00
3.52297	58.00
3.53963	58.00
3.55630	58.00
3.57297	58.00
3.58963	58.00
3.60630	58.00
3.62297	58.00
3.63963	58.00
3.65630	58.00
3.67297	58.00
3.68963	58.00
3.70630	58.00
3.72297	58.00
3.73963	58.00
3.75630	58.00
3.77297	58.00
3.78963	58.00
3.80630	58.00
3.82297	58.00
3.83963	58.00
3.85630	58.00
3.87297	58.00
3.88963	58.00
3.90630	58.00
3.92297	58.00
3.93963	58.00
3.95630	58.00
3.97297	58.00
3.98963	58.00

[Status Trace (Carrier Gas Flow)]
Interval(msec)	1000
# of Points	240
Start Time(min)	0.006
End Time(min)	3.990
Intensity Units	
Intensity Multiplier	1
R.Time (min)	Intensity
0.00630	34.52
0.02297	34.53
0.03963	34.55
0.05630	34.55
0.07297	34.50
0.08963	34.52
0.10630	34.52
0.12297	34.52
0.13963	34.52
0.15630	34.52
0.17297	34.52
0.18963	34.51
0.20630	34.52
0.22297	34.52
0.23963	34.52
0.25630	34.52
0.27297	34.52
0.28963	34.52
0.30630	34.52
0.32297	34.52
0.33963	34.52
0.35630	34.52
0.37297	34.52
0.38963	34.51
0.40630	34.52
0.42297	34.52
0.43963	34.52
0.45630	34.52
0.47297	34.52
0.48963	34.52
0.50630	34.52
0.52297	34.52
0.53963	34.52
0.55630	34.52
0.57297	34.52
0.58963	34.52
0.60630	34.52
0.62297	34.52
0.63963	34.52
0.65630	34.52
0.67297	34.52
0.68963	34.52
0.70630	34.52
0.72297	34.52
0.73963	34.52
0.75630	34.52
0.77297	34.52
0.78963	34.52
0.80630	34.52
0.82297	34.52
0.83963	34.52
0.85630	34.52
0.87297	34.52
0.88963	34.51
0.90630	34.52
0.92297	34.52
0.93963	34.52
0.95630	34.52
0.97297	34.52
0.98963	34.52
1.00630	34.52
1.02297	34.52
1.03963	34.52
1.05630	34.52
1.07297	34.52
1.08963	34.52
1.10630	34.52
1.12297	34.52
1.13963	34.52
1.15630	34.52
1.17297	34.52
1.18963	34.53
1.20630	34.52
1.22297	34.51
1.23963	34.52
1.25630	34.52
1.27297	34.52
1.28963	34.51
1.30630	34.52
1.32297	34.52
1.33963	34.52
1.35630	34.52
1.37297	34.52
1.38963	34.53
1.40630	34.51
1.42297	34.51
1.43963	34.52
1.45630	34.52
1.47297	34.52
1.48963	34.52
1.50630	34.51
1.52297	34.51
1.53963	34.51
1.55630	34.51
1.57297	34.52
1.58963	34.53
1.60630	34.52
1.62297	34.52
1.63963	34.52
1.65630	34.52
1.67297	34.52
1.68963	34.52
1.70630	34.53
1.72297	34.52
1.73963	34.52
1.75630	34.52
1.77297	34.52
1.78963	34.52
1.80630	34.52
1.82297	34.52
1.83963	34.52
1.85630	34.52
1.87297	34.52
1.88963	34.52
1.90630	34.52
1.92297	34.51
1.93963	34.51
1.95630	34.52
1.97297	34.52
1.98963	34.52
2.00630	34.52
2.02297	34.52
2.03963	34.52
2.05630	34.52
2.07297	34.52
2.08963	34.52
2.10630	34.52
2.12297	34.53
2.13963	34.52
2.15630	34.52
2.17297	34.52
2.18963	34.51
2.20630	34.52
2.22297	34.51
2.23963	34.52
2.25630	34.52
2.27297	34.52
2.28963	34.52
2.30630	34.52
2.32297	34.52
2.33963	34.52
2.35630	34.51
2.37297	34.51
2.38963	34.52
2.40630	34.52
2.42297	34.52
2.43963	34.52
2.45630	34.52
2.47297	34.52
2.48963	34.52
2.50630	34.45
2.52297	34.51
2.53963	34.52
2.55630	34.51
2.57297	34.52
2.58963	34.52
2.60630	34.53
2.62297	34.52
2.63963	34.52
2.65630	34.51
2.67297	34.52
2.68963	34.52
2.70630	34.52
2.72297	34.51
2.73963	34.51
2.75630	34.52
2.77297	34.51
2.78963	34.53
2.80630	34.52
2.82297	34.52
2.83963	34.52
2.85630	34.53
2.87297	34.52
2.88963	34.52
2.90630	34.52
2.92297	34.52
2.93963	34.52
2.95630	34.51
2.97297	34.51
2.98963	34.52
3.00630	34.52
3.02297	34.52
3.03963	34.52
3.05630	34.52
3.07297	34.52
3.08963	34.52
3.10630	34.52
3.12297	34.52
3.13963	34.51
3.15630	34.52
3.17297	34.52
3.18963	34.52
3.20630	34.52
3.22297	34.52
3.23963	34.52
3.25630	34.52
3.27297	34.52
3.28963	34.52
3.30630	34.51
3.32297	34.52
3.33963	34.51
3.35630	34.52
3.37297	34.52
3.38963	34.52
3.40630	34.52
3.42297	34.52
3.43963	34.52
3.45630	34.52
3.47297	34.53
3.48963	34.52
3.50630	34.52
3.52297	34.52
3.53963	34.52
3.55630	34.52
3.57297	34.52
3.58963	34.52
3.60630	34.52
3.62297	34.52
3.63963	34.52
3.65630	34.52
3.67297	34.52
3.68963	34.52
3.70630	34.52
3.72297	34.52
3.73963	34.52
3.75630	34.52
3.77297	34.51
3.78963	34.52
3.80630	34.51
3.82297	34.51
3.83963	34.52
3.85630	34.52
3.87297	34.51
3.88963	34.52
3.90630	34.52
3.92297	34.52
3.93963	34.52
3.95630	34.52
3.97297	34.52
3.98963	34.52

[Status Trace (Column Flow)]
Interval(msec)	1000
# of Points	240
Start Time(min)	0.006
End Time(min)	3.990
Intensity Units	
Intensity Multiplier	1
R.Time (min)	Intensity
0.00630	5.54
0.02297	5.25
0.03963	5.40
0.05630	5.66
0.07297	5.72
0.08963	5.55
0.10630	5.53
0.12297	5.54
0.13963	5.54
0.15630	5.54
0.17297	5.54
0.18963	5.54
0.20630	5.54
0.22297	5.54
0.23963	5.54
0.25630	5.54
0.27297	5.54
0.28963	5.54
0.30630	5.54
0.32297	5.54
0.33963	5.54
0.35630	5.54
0.37297	5.54
0.38963	5.54
0.40630	5.54
0.42297	5.54
0.43963	5.54
0.45630	5.54
0.47297	5.54
0.48963	5.54
0.50630	5.54
0.52297	5.54
0.53963	5.54
0.55630	5.54
0.57297	5.54
0.58963	5.54
0.60630	5.54
0.62297	5.54
0.63963	5.54
0.65630	5.54
0.67297	5.54
0.68963	5.54
0.70630	5.54
0.72297	5.54
0.73963	5.54
0.75630	5.54
0.77297	5.54
0.78963	5.54
0.80630	5.54
0.82297	5.54
0.83963	5.54
0.85630	5.54
0.87297	5.54
0.88963	5.54
0.90630	5.54
0.92297	5.54
0.93963	5.54
0.95630	5.54
0.97297	5.54
0.98963	5.54
1.00630	5.54
1.02297	5.54
1.03963	5.54
1.05630	5.54
1.07297	5.54
1.08963	5.54
1.10630	5.54
1.12297	5.54
1.13963	5.54
1.15630	5.54
1.17297	5.54
1.18963	5.54
1.20630	5.54
1.22297	5.54
1.23963	5.54
1.25630	5.54
1.27297	5.54
1.28963	5.54
1.30630	5.54
1.32297	5.54
1.33963	5.54
1.35630	5.54
1.37297	5.54
1.38963	5.54
1.40630	5.54
1.42297	5.54
1.43963	5.54
1.45630	5.54
1.47297	5.54
1.48963	5.54
1.50630	5.54
1.52297	5.54
1.53963	5.54
1.55630	5.54
1.57297	5.54
1.58963	5.54
1.60630	5.54
1.62297	5.53
1.63963	5.53
1.65630	5.52
1.67297	5.51
1.68963	5.50
1.70630	5.49
1.72297	5.47
1.73963	5.47
1.75630	5.46
1.77297	5.45
1.78963	5.44
1.80630	5.43
1.82297	5.41
1.83963	5.40
1.85630	5.39
1.87297	5.38
1.88963	5.37
1.90630	5.36
1.92297	5.35
1.93963	5.34
1.95630	5.33
1.97297	5.33
1.98963	5.32
2.00630	5.31
2.02297	5.30
2.03963	5.29
2.05630	5.28
2.07297	5.27
2.08963	5.26
2.10630	5.25
2.12297	5.24
2.13963	5.23
2.15630	5.22
2.17297	5.21
2.18963	5.20
2.20630	5.19
2.22297	5.18
2.23963	5.17
2.25630	5.16
2.27297	5.15
2.28963	5.14
2.30630	5.14
2.32297	5.13
2.33963	5.12
2.35630	5.11
2.37297	5.10
2.38963	5.10
2.40630	5.10
2.42297	5.10
2.43963	5.10
2.45630	5.10
2.47297	5.10
2.48963	5.10
2.50630	5.10
2.52297	5.10
2.53963	5.10
2.55630	5.10
2.57297	5.10
2.58963	5.10
2.60630	5.10
2.62297	5.10
2.63963	5.10
2.65630	5.10
2.67297	5.10
2.68963	5.10
2.70630	5.10
2.72297	5.10
2.73963	5.10
2.75630	5.10
2.77297	5.10
2.78963	5.10
2.80630	5.10
2.82297	5.10
2.83963	5.10
2.85630	5.10
2.87297	5.10
2.88963	5.10
2.90630	5.10
2.92297	5.09
2.93963	5.09
2.95630	5.09
2.97297	5.09
2.98963	5.09
3.00630	5.09
3.02297	5.09
3.03963	5.09
3.05630	5.09
3.07297	5.09
3.08963	5.09
3.10630	5.09
3.12297	5.09
3.13963	5.09
3.15630	5.09
3.17297	5.09
3.18963	5.09
3.20630	5.09
3.22297	5.09
3.23963	5.09
3.25630	5.09
3.27297	5.09
3.28963	5.09
3.30630	5.09
3.32297	5.09
3.33963	5.09
3.35630	5.09
3.37297	5.09
3.38963	5.09
3.40630	5.09
3.42297	5.09
3.43963	5.09
3.45630	5.09
3.47297	5.09
3.48963	5.09
3.50630	5.09
3.52297	5.09
3.53963	5.09
3.55630	5.09
3.57297	5.09
3.58963	5.09
3.60630	5.09
3.62297	5.09
3.63963	5.09
3.65630	5.09
3.67297	5.09
3.68963	5.09
3.70630	5.09
3.72297	5.09
3.73963	5.09
3.75630	5.09
3.77297	5.09
3.78963	5.09
3.80630	5.09
3.82297	5.09
3.83963	5.09
3.85630	5.09
3.87297	5.09
3.88963	5.09
3.90630	5.09
3.92297	5.09
3.93963	5.09
3.95630	5.09
3.97297	5.09
3.98963	5.09

[Status Trace (Linear Velocity)]
Interval(msec)	1000
# of Points	240
Start Time(min)	0.006
End Time(min)	3.990
Intensity Units	
Intensity Multiplier	1
R.Time (min)	Intensity
0.00630	39.02
0.02297	37.41
0.03963	38.26
0.05630	39.72
0.07297	40.02
0.08963	39.09
0.10630	39.00
0.12297	39.02
0.13963	39.02
0.15630	39.02
0.17297	39.02
0.18963	39.02
0.20630	39.02
0.22297	39.02
0.23963	39.02
0.25630	39.02
0.27297	39.02
0.28963	39.02
0.30630	39.02
0.32297	39.02
0.33963	39.01
0.35630	39.01
0.37297	39.02
0.38963	39.02
0.40630	39.02
0.42297	39.02
0.43963	39.02
0.45630	39.02
0.47297	39.02
0.48963	39.02
0.50630	39.02
0.52297	39.02
0.53963	39.02
0.55630	39.02
0.57297	39.02
0.58963	39.02
0.60630	39.02
0.62297	39.02
0.63963	39.02
0.65630	39.02
0.67297	39.02
0.68963	39.02
0.70630	39.02
0.72297	39.02
0.73963	39.02
0.75630	39.02
0.77297	39.02
0.78963	39.02
0.80630	39.02
0.82297	39.02
0.83963	39.02
0.85630	39.02
0.87297	39.02
0.88963	39.02
0.90630	39.02
0.92297	39.02
0.93963	39.02
0.95630	39.02
0.97297	39.02
0.98963	39.02
1.00630	39.02
1.02297	39.02
1.03963	39.02
1.05630	39.02
1.07297	39.02
1.08963	39.02
1.10630	39.02
1.12297	39.02
1.13963	39.02
1.15630	39.02
1.17297	39.02
1.18963	39.02
1.20630	39.02
1.22297	39.02
1.23963	39.02
1.25630	39.02
1.27297	39.02
1.28963	39.02
1.30630	39.02
1.32297	39.02
1.33963	39.02
1.35630	39.02
1.37297	39.02
1.38963	39.02
1.40630	39.02
1.42297	39.02
1.43963	39.02
1.45630	39.02
1.47297	39.02
1.48963	39.02
1.50630	39.02
1.52297	39.02
1.53963	39.02
1.55630	39.02
1.57297	39.02
1.58963	39.02
1.60630	39.02
1.62297	39.01
1.63963	38.99
1.65630	38.96
1.67297	38.93
1.68963	38.90
1.70630	38.86
1.72297	38.83
1.73963	38.80
1.75630	38.77
1.77297	38.74
1.78963	38.71
1.80630	38.68
1.82297	38.64
1.83963	38.61
1.85630	38.58
1.87297	38.55
1.88963	38.52
1.90630	38.49
1.92297	38.46
1.93963	38.43
1.95630	38.40
1.97297	38.37
1.98963	38.34
2.00630	38.31
2.02297	38.28
2.03963	38.25
2.05630	38.22
2.07297	38.19
2.08963	38.16
2.10630	38.13
2.12297	38.10
2.13963	38.07
2.15630	38.04
2.17297	38.01
2.18963	37.98
2.20630	37.95
2.22297	37.92
2.23963	37.89
2.25630	37.86
2.27297	37.83
2.28963	37.80
2.30630	37.77
2.32297	37.74
2.33963	37.71
2.35630	37.69
2.37297	37.67
2.38963	37.66
2.40630	37.66
2.42297	37.66
2.43963	37.66
2.45630	37.66
2.47297	37.66
2.48963	37.66
2.50630	37.66
2.52297	37.65
2.53963	37.66
2.55630	37.66
2.57297	37.66
2.58963	37.66
2.60630	37.65
2.62297	37.65
2.63963	37.65
2.65630	37.65
2.67297	37.65
2.68963	37.65
2.70630	37.65
2.72297	37.65
2.73963	37.65
2.75630	37.65
2.77297	37.65
2.78963	37.65
2.80630	37.65
2.82297	37.65
2.83963	37.65
2.85630	37.65
2.87297	37.64
2.88963	37.64
2.90630	37.64
2.92297	37.64
2.93963	37.64
2.95630	37.64
2.97297	37.64
2.98963	37.64
3.00630	37.64
3.02297	37.64
3.03963	37.63
3.05630	37.63
3.07297	37.63
3.08963	37.63
3.10630	37.63
3.12297	37.63
3.13963	37.63
3.15630	37.63
3.17297	37.63
3.18963	37.63
3.20630	37.63
3.22297	37.63
3.23963	37.63
3.25630	37.63
3.27297	37.63
3.28963	37.63
3.30630	37.63
3.32297	37.63
3.33963	37.63
3.35630	37.63
3.37297	37.63
3.38963	37.63
3.40630	37.63
3.42297	37.63
3.43963	37.63
3.45630	37.63
3.47297	37.63
3.48963	37.63
3.50630	37.63
3.52297	37.63
3.53963	37.63
3.55630	37.63
3.57297	37.63
3.58963	37.63
3.60630	37.63
3.62297	37.63
3.63963	37.63
3.65630	37.63
3.67297	37.63
3.68963	37.63
3.70630	37.63
3.72297	37.63
3.73963	37.63
3.75630	37.63
3.77297	37.63
3.78963	37.63
3.80630	37.63
3.82297	37.63
3.83963	37.63
3.85630	37.63
3.87297	37.63
3.88963	37.63
3.90630	37.63
3.92297	37.63
3.93963	37.63
3.95630	37.63
3.97297	37.63
3.98963	37.63

