[Header]
Application Name	LabSolutions
Version	5.110
Data File Name	C:\Users\User\Desktop\GC Analyses\Jack\Nachusa Grasslands Sampling\T3 Timepoint July 12th\T3_07122022_036.gcd
Output Date	3/14/2023
Output Time	3:43:32 PM

[File Information]
Type	Data File
Generated	3/13/2023 6:26:29 PM
Generated by	System Administrator
Modified	3/13/2023 6:33:01 PM
Modified by	System Administrator

[Sample Information]
Operator Name	System Administrator
Acquired	3/13/2023 6:29:00 PM
Sample Type	0:Unknown
Level	0
Sample Name	036
Sample ID	036
ISTD Amount1	1
ISTD Amount2	1
ISTD Amount3	1
ISTD Amount4	1
ISTD Amount5	1
ISTD Amount6	1
ISTD Amount7	1
ISTD Amount8	1
ISTD Amount9	1
ISTD Amount10	1
ISTD Amount11	1
ISTD Amount12	1
ISTD Amount13	1
ISTD Amount14	1
ISTD Amount15	1
ISTD Amount16	1
ISTD Amount17	1
ISTD Amount18	1
ISTD Amount19	1
ISTD Amount20	1
ISTD Amount21	1
ISTD Amount22	1
ISTD Amount23	1
ISTD Amount24	1
ISTD Amount25	1
ISTD Amount26	1
ISTD Amount27	1
ISTD Amount28	1
ISTD Amount29	1
ISTD Amount30	1
ISTD Amount31	1
ISTD Amount32	1
Sample Amount	1
Dilution Factor	1
Vial#	35
Injection Volume	1
Injection Count	1
Bar Code	

[Original Files]
Data File	C:\Users\User\Desktop\GC Analyses\Jack\Nachusa Grasslands Sampling\T3 Timepoint July 12th\T3_07122022_036.gcd
Method File	C:\LabSolutions\Data\GHG_4min_2022\ghg3_togas_w_acet_4 min_new_int.gcm
Batch File	C:\LabSolutions\Data\AutoSamplerTesting\T3_07122022.gcb
Report Format File	c:\LabSolutions\System\DEFAULT.lsr

[File Description]


[Configuration]
Instrument Name	C0B7VH3-Instrument1
Instrument #	1
Line #	1
# of Detectors	3
Detector ID	DET#1	DET#2	DET#3
Detector Name	FID	PTCD	ECD
# of Channels	1	1	1

[Peak Table(Ch1)]
# of Peaks	3
Peak#	R.Time	I.Time	F.Time	Area	Height	A/H	Conc.	Mark	ID#	Name	k'	Plate #	Plate Ht.	Tailing	Resolution	Sep.Factor	Area Ratio	Height Ratio	Conc. %	Norm Conc.
1	1.476	1.443	1.534	23652	11616	2.036	166.987	   	1	CO	0.000	9587	15.645	1.261	0.000	0.000	0	0	27.028	27.028
2	1.571	1.538	1.608	3647	1960	1.861	70.521	   	2	CH4	0.065	12473	12.026	1.077	1.636	0.000	0	0	11.414	11.414
3	2.000	1.952	2.301	1515425	733875	2.065	380.331	   	3	CO2	0.355	17582	8.532	1.200	7.358	5.500	0	0	61.558	61.558

[Peak Table(Ch2)]
# of Peaks	0

[Peak Table(Ch3)]
# of Peaks	5
Peak#	R.Time	I.Time	F.Time	Area	Height	A/H	Conc.	Mark	ID#	Name	k'	Plate #	Plate Ht.	Tailing	Resolution	Sep.Factor	Area Ratio	Height Ratio	Conc. %	Norm Conc.
1	2.462	2.330	2.510	1770	576	3.074	0.000	   			0.000	10750	13.954	0.000	0.000	0.000	0	0	0.000	0.000
2	2.528	2.510	2.579	902	314	2.875	0.000	 V 			0.027	6420	23.363	0.000	0.597	0.000	0	0	0.000	0.000
3	2.612	2.579	2.686	571	139	4.110	0.000	 V 			0.061	1937	77.446	0.000	0.464	2.278	0	0	0.000	0.000
4	2.880	2.770	3.052	17984	4768	3.772	0.459	   	1	N2O	0.170	13289	11.288	1.534	1.587	2.780	0	0	100.000	100.000
5	3.430	3.214	3.694	813	48	16.777	0.000	   	2	SF6	0.393	1049	143.009	1.119	2.101	2.316	0	0	0.000	0.000

[Compound Results(Ch1)]
# of IDs	6
ID#	Name	R.Time	Area	Height	Conc.	Curve	3rd	2nd	1st	Constant	Area Ratio	Height Ratio	Conc. %	Norm Conc.
1	CO	1.476	23652	11616	166.987	Linear	0.000000e+00	0.000000e+00	1.416423e+002	0.000000e+00	0	0	27.028	27.028
2	CH4	1.571	3647	1960	70.521	Linear	0.000000e+00	0.000000e+00	5.171738e+001	0.000000e+00	0	0	11.414	11.414
3	CO2	2.000	1515425	733875	380.331	Linear	0.000000e+00	0.000000e+00	3.984494e+003	0.000000e+00	0	0	61.558	61.558
4	Ethylene	0.000	0	0	0.000	Linear	0.000000e+00	0.000000e+00	0.000000e+00	0.000000e+00	0	0	0.000	0.000
5	Acetylene	0.000	0	0	0.000	Linear	0.000000e+00	0.000000e+00	0.000000e+00	0.000000e+00	0	0	0.000	0.000
6	Ethane	0.000	0	0	0.000	Linear	0.000000e+00	0.000000e+00	0.000000e+00	0.000000e+00	0	0	0.000	0.000

[Compound Results(Ch2)]
# of IDs	5
ID#	Name	R.Time	Area	Height	Conc.	Curve	3rd	2nd	1st	Constant	Area Ratio	Height Ratio	Conc. %	Norm Conc.
1	Hydrogen	0.000	0	0	0.000	Linear	0.000000e+00	0.000000e+00	0.000000e+00	0.000000e+00	0	0	0.000	0.000
2	Oxygen	0.000	0	0	0.000	Linear	0.000000e+00	0.000000e+00	0.000000e+00	0.000000e+00	0	0	0.000	0.000
3	Nitrogen	0.000	0	0	0.000	Linear	0.000000e+00	0.000000e+00	0.000000e+00	0.000000e+00	0	0	0.000	0.000
4	Methane	0.000	0	0	0.000	Linear	0.000000e+00	0.000000e+00	0.000000e+00	0.000000e+00	0	0	0.000	0.000
5	Carbon Monoxide	0.000	0	0	0.000	Linear	0.000000e+00	0.000000e+00	0.000000e+00	0.000000e+00	0	0	0.000	0.000

[Compound Results(Ch3)]
# of IDs	2
ID#	Name	R.Time	Area	Height	Conc.	Curve	3rd	2nd	1st	Constant	Area Ratio	Height Ratio	Conc. %	Norm Conc.
1	N2O	2.880	17984	4768	0.459	Linear	0.000000e+00	0.000000e+00	3.915173e+004	0.000000e+00	0	0	100.000	100.000
2	SF6	3.430	813	48	0.000	Linear	0.000000e+00	0.000000e+00	0.000000e+00	0.000000e+00	0	0	0.000	0.000

[Group Results(Ch1)]
# of Groups	0

[Group Results(Ch2)]
# of Groups	0

[Group Results(Ch3)]
# of Groups	0

[Chromatogram (Ch1)]
Interval(msec)	220
# of Points	1091
Start Time(min)	0.002
End Time(min)	3.998
R.Time (min)	Intensity
0.00167	-6
0.00533	-11
0.00900	-17
0.01267	-21
0.01633	-22
0.02000	-24
0.02367	-22
0.02733	-17
0.03100	-15
0.03467	-15
0.03833	-14
0.04200	-12
0.04567	-6
0.04933	2
0.05300	7
0.05667	5
0.06033	1
0.06400	-3
0.06767	-11
0.07133	-17
0.07500	-17
0.07867	-13
0.08233	-11
0.08600	-13
0.08967	-16
0.09333	-18
0.09700	-17
0.10067	-14
0.10433	-10
0.10800	-6
0.11167	-5
0.11533	-6
0.11900	-9
0.12267	-14
0.12633	-14
0.13000	-11
0.13367	-3
0.13733	2
0.14100	-1
0.14467	-5
0.14833	-10
0.15200	-15
0.15567	-14
0.15933	-11
0.16300	-4
0.16667	5
0.17033	7
0.17400	2
0.17767	-3
0.18133	-5
0.18500	-2
0.18867	2
0.19233	4
0.19600	5
0.19967	1
0.20333	-4
0.20700	-8
0.21067	-10
0.21433	-10
0.21800	-8
0.22167	-5
0.22533	-4
0.22900	-1
0.23267	3
0.23633	5
0.24000	6
0.24367	5
0.24733	-2
0.25100	-8
0.25467	-10
0.25833	-8
0.26200	-1
0.26567	6
0.26933	10
0.27300	12
0.27667	12
0.28033	11
0.28400	9
0.28767	8
0.29133	9
0.29500	11
0.29867	13
0.30233	12
0.30600	10
0.30967	3
0.31333	-12
0.31700	-24
0.32067	-28
0.32433	-23
0.32800	-16
0.33167	-8
0.33533	-2
0.33900	-0
0.34267	-2
0.34633	-3
0.35000	1
0.35367	10
0.35733	12
0.36100	9
0.36467	7
0.36833	10
0.37200	14
0.37567	14
0.37933	12
0.38300	16
0.38667	18
0.39033	17
0.39400	15
0.39767	17
0.40133	18
0.40500	17
0.40867	18
0.41233	19
0.41600	17
0.41967	17
0.42333	22
0.42700	21
0.43067	19
0.43433	18
0.43800	13
0.44167	5
0.44533	-1
0.44900	-4
0.45267	-1
0.45633	6
0.46000	14
0.46367	19
0.46733	16
0.47100	9
0.47467	3
0.47833	-1
0.48200	-0
0.48567	4
0.48933	10
0.49300	15
0.49667	15
0.50033	15
0.50400	20
0.50767	22
0.51133	21
0.51500	19
0.51867	12
0.52233	6
0.52600	1
0.52967	-4
0.53333	-9
0.53700	-14
0.54067	-18
0.54433	-20
0.54800	-16
0.55167	-10
0.55533	-2
0.55900	5
0.56267	2
0.56633	-2
0.57000	-5
0.57367	-12
0.57733	-16
0.58100	-14
0.58467	-9
0.58833	0
0.59200	5
0.59567	5
0.59933	3
0.60300	5
0.60667	7
0.61033	7
0.61400	3
0.61767	-1
0.62133	-6
0.62500	-7
0.62867	-6
0.63233	-10
0.63600	-15
0.63967	-16
0.64333	-15
0.64700	-13
0.65067	-10
0.65433	-5
0.65800	-1
0.66167	3
0.66533	7
0.66900	11
0.67267	12
0.67633	9
0.68000	2
0.68367	-8
0.68733	-16
0.69100	-19
0.69467	-19
0.69833	-16
0.70200	-6
0.70567	7
0.70933	17
0.71300	19
0.71667	18
0.72033	12
0.72400	6
0.72767	-2
0.73133	-7
0.73500	-5
0.73867	2
0.74233	8
0.74600	9
0.74967	3
0.75333	-2
0.75700	-8
0.76067	-13
0.76433	-25
0.76800	-37
0.77167	-43
0.77533	-45
0.77900	-44
0.78267	-36
0.78633	-27
0.79000	-24
0.79367	-28
0.79733	-33
0.80100	-37
0.80467	-40
0.80833	-41
0.81200	-40
0.81567	-35
0.81933	-30
0.82300	-25
0.82667	-17
0.83033	-6
0.83400	9
0.83767	18
0.84133	14
0.84500	4
0.84867	-8
0.85233	-17
0.85600	-22
0.85967	-24
0.86333	-25
0.86700	-29
0.87067	-31
0.87433	-27
0.87800	-19
0.88167	-3
0.88533	7
0.88900	7
0.89267	1
0.89633	-9
0.90000	-18
0.90367	-24
0.90733	-24
0.91100	-18
0.91467	-13
0.91833	-8
0.92200	-2
0.92567	-1
0.92933	-8
0.93300	-19
0.93667	-24
0.94033	-25
0.94400	-25
0.94767	-25
0.95133	-25
0.95500	-23
0.95867	-18
0.96233	-16
0.96600	-18
0.96967	-19
0.97333	-20
0.97700	-20
0.98067	-18
0.98433	-22
0.98800	-31
0.99167	-40
0.99533	-50
0.99900	-57
1.00267	-63
1.00633	-62
1.01000	-58
1.01367	-51
1.01733	-40
1.02100	-27
1.02467	-18
1.02833	-13
1.03200	-9
1.03567	-7
1.03933	-11
1.04300	-15
1.04667	-17
1.05033	-20
1.05400	-21
1.05767	-24
1.06133	-28
1.06500	-36
1.06867	-47
1.07233	-54
1.07600	-55
1.07967	-54
1.08333	-52
1.08700	-52
1.09067	-56
1.09433	-56
1.09800	-47
1.10167	-38
1.10533	-35
1.10900	-31
1.11267	-30
1.11633	-31
1.12000	-30
1.12367	-29
1.12733	-30
1.13100	-34
1.13467	-38
1.13833	-40
1.14200	-38
1.14567	-35
1.14933	-33
1.15300	-36
1.15667	-45
1.16033	-55
1.16400	-61
1.16767	-64
1.17133	-63
1.17500	-61
1.17867	-57
1.18233	-52
1.18600	-48
1.18967	-49
1.19333	-55
1.19700	-55
1.20067	-50
1.20433	-46
1.20800	-44
1.21167	-42
1.21533	-38
1.21900	-36
1.22267	-40
1.22633	-47
1.23000	-47
1.23367	-41
1.23733	-37
1.24100	-36
1.24467	-38
1.24833	-47
1.25200	-57
1.25567	-62
1.25933	-62
1.26300	-60
1.26667	-56
1.27033	-52
1.27400	-52
1.27767	-54
1.28133	-52
1.28500	-47
1.28867	-47
1.29233	-52
1.29600	-54
1.29967	-52
1.30333	-46
1.30700	-42
1.31067	-38
1.31433	-40
1.31800	-45
1.32167	-52
1.32533	-60
1.32900	-68
1.33267	-71
1.33633	-66
1.34000	-54
1.34367	-45
1.34733	-47
1.35100	-51
1.35467	-53
1.35833	-54
1.36200	-51
1.36567	-46
1.36933	-43
1.37300	-41
1.37667	-40
1.38033	-42
1.38400	-45
1.38767	-47
1.39133	-51
1.39500	-51
1.39867	-50
1.40233	-51
1.40600	-53
1.40967	-53
1.41333	-52
1.41700	-51
1.42067	-49
1.42433	-48
1.42800	-48
1.43167	-52
1.43533	-55
1.43900	-54
1.44267	-28
1.44633	110
1.45000	541
1.45367	1517
1.45733	3236
1.46100	5456
1.46467	7671
1.46833	9516
1.47200	10827
1.47567	11503
1.47933	11435
1.48300	10584
1.48667	9101
1.49033	7291
1.49400	5482
1.49767	3906
1.50133	2652
1.50500	1714
1.50867	1044
1.51233	581
1.51600	268
1.51967	58
1.52333	-81
1.52700	-171
1.53067	-230
1.53433	-263
1.53800	-273
1.54167	-241
1.54533	-122
1.54900	127
1.55267	488
1.55633	889
1.56000	1255
1.56367	1540
1.56733	1720
1.57100	1768
1.57467	1661
1.57833	1419
1.58200	1098
1.58567	769
1.58933	486
1.59300	270
1.59667	116
1.60033	12
1.60400	-56
1.60767	-102
1.61133	-128
1.61500	-142
1.61867	-145
1.62233	-147
1.62600	-146
1.62967	-144
1.63333	-137
1.63700	-129
1.64067	-126
1.64433	-127
1.64800	-128
1.65167	-129
1.65533	-133
1.65900	-136
1.66267	-137
1.66633	-133
1.67000	-130
1.67367	-127
1.67733	-126
1.68100	-127
1.68467	-128
1.68833	-130
1.69200	-127
1.69567	-118
1.69933	-109
1.70300	-101
1.70667	-97
1.71033	-96
1.71400	-97
1.71767	-97
1.72133	-96
1.72500	-97
1.72867	-92
1.73233	-83
1.73600	-78
1.73967	-76
1.74333	-79
1.74700	-85
1.75067	-87
1.75433	-83
1.75800	-73
1.76167	-68
1.76533	-70
1.76900	-72
1.77267	-75
1.77633	-74
1.78000	-77
1.78367	-83
1.78733	-85
1.79100	-84
1.79467	-80
1.79833	-75
1.80200	-71
1.80567	-69
1.80933	-69
1.81300	-68
1.81667	-65
1.82033	-65
1.82400	-71
1.82767	-78
1.83133	-79
1.83500	-75
1.83867	-68
1.84233	-63
1.84600	-63
1.84967	-67
1.85333	-70
1.85700	-72
1.86067	-71
1.86433	-68
1.86800	-67
1.87167	-66
1.87533	-63
1.87900	-59
1.88267	-53
1.88633	-49
1.89000	-53
1.89367	-56
1.89733	-58
1.90100	-60
1.90467	-62
1.90833	-59
1.91200	-57
1.91567	-58
1.91933	-58
1.92300	-54
1.92667	-45
1.93033	-39
1.93400	-36
1.93767	-33
1.94133	-30
1.94500	-30
1.94867	-31
1.95233	-22
1.95600	32
1.95967	339
1.96333	1910
1.96700	8155
1.97067	27065
1.97433	71269
1.97800	152025
1.98167	269169
1.98533	407287
1.98900	542312
1.99267	651452
1.99633	718366
2.00000	733883
2.00367	697631
2.00733	619139
2.01100	515331
2.01467	405147
2.01833	303750
2.02200	219521
2.02567	154578
2.02933	107111
2.03300	73688
2.03667	50728
2.04033	35188
2.04400	24747
2.04767	17734
2.05133	13002
2.05500	9772
2.05867	7538
2.06233	5966
2.06600	4836
2.06967	4011
2.07333	3397
2.07700	2919
2.08067	2534
2.08433	2226
2.08800	1980
2.09167	1781
2.09533	1614
2.09900	1465
2.10267	1335
2.10633	1226
2.11000	1134
2.11367	1055
2.11733	987
2.12100	931
2.12467	884
2.12833	843
2.13200	804
2.13567	767
2.13933	731
2.14300	697
2.14667	662
2.15033	626
2.15400	592
2.15767	566
2.16133	540
2.16500	511
2.16867	484
2.17233	463
2.17600	446
2.17967	431
2.18333	421
2.18700	411
2.19067	397
2.19433	381
2.19800	368
2.20167	353
2.20533	344
2.20900	336
2.21267	328
2.21633	322
2.22000	315
2.22367	307
2.22733	300
2.23100	296
2.23467	294
2.23833	292
2.24200	288
2.24567	282
2.24933	277
2.25300	277
2.25667	276
2.26033	269
2.26400	260
2.26767	247
2.27133	231
2.27500	217
2.27867	208
2.28233	205
2.28600	206
2.28967	206
2.29333	203
2.29700	201
2.30067	199
2.30433	197
2.30800	197
2.31167	194
2.31533	189
2.31900	188
2.32267	192
2.32633	193
2.33000	193
2.33367	187
2.33733	177
2.34100	172
2.34467	173
2.34833	177
2.35200	178
2.35567	177
2.35933	179
2.36300	177
2.36667	168
2.37033	160
2.37400	156
2.37767	157
2.38133	160
2.38500	162
2.38867	164
2.39233	168
2.39600	177
2.39967	188
2.40333	193
2.40700	192
2.41067	190
2.41433	185
2.41800	177
2.42167	172
2.42533	167
2.42900	167
2.43267	168
2.43633	166
2.44000	160
2.44367	148
2.44733	136
2.45100	130
2.45467	132
2.45833	134
2.46200	134
2.46567	133
2.46933	134
2.47300	135
2.47667	137
2.48033	141
2.48400	144
2.48767	144
2.49133	140
2.49500	134
2.49867	129
2.50233	130
2.50600	135
2.50967	142
2.51333	149
2.51700	149
2.52067	144
2.52433	137
2.52800	136
2.53167	141
2.53533	147
2.53900	152
2.54267	156
2.54633	155
2.55000	150
2.55367	146
2.55733	141
2.56100	136
2.56467	132
2.56833	130
2.57200	129
2.57567	133
2.57933	136
2.58300	133
2.58667	127
2.59033	119
2.59400	117
2.59767	120
2.60133	126
2.60500	129
2.60867	133
2.61233	137
2.61600	138
2.61967	141
2.62333	146
2.62700	152
2.63067	153
2.63433	149
2.63800	148
2.64167	154
2.64533	157
2.64900	156
2.65267	148
2.65633	140
2.66000	132
2.66367	124
2.66733	117
2.67100	118
2.67467	120
2.67833	120
2.68200	123
2.68567	126
2.68933	130
2.69300	132
2.69667	136
2.70033	139
2.70400	137
2.70767	139
2.71133	146
2.71500	152
2.71867	156
2.72233	159
2.72600	163
2.72967	165
2.73333	160
2.73700	149
2.74067	139
2.74433	130
2.74800	124
2.75167	126
2.75533	134
2.75900	136
2.76267	132
2.76633	130
2.77000	135
2.77367	140
2.77733	147
2.78100	152
2.78467	153
2.78833	152
2.79200	151
2.79567	150
2.79933	145
2.80300	139
2.80667	137
2.81033	137
2.81400	140
2.81767	144
2.82133	147
2.82500	151
2.82867	153
2.83233	155
2.83600	154
2.83967	155
2.84333	157
2.84700	160
2.85067	165
2.85433	171
2.85800	173
2.86167	170
2.86533	166
2.86900	165
2.87267	167
2.87633	174
2.88000	182
2.88367	188
2.88733	193
2.89100	194
2.89467	189
2.89833	183
2.90200	177
2.90567	172
2.90933	165
2.91300	156
2.91667	149
2.92033	138
2.92400	133
2.92767	135
2.93133	141
2.93500	146
2.93867	151
2.94233	158
2.94600	163
2.94967	170
2.95333	177
2.95700	180
2.96067	178
2.96433	175
2.96800	170
2.97167	164
2.97533	159
2.97900	155
2.98267	151
2.98633	153
2.99000	155
2.99367	155
2.99733	155
3.00100	154
3.00467	155
3.00833	161
3.01200	163
3.01567	166
3.01933	170
3.02300	171
3.02667	168
3.03033	170
3.03400	169
3.03767	166
3.04133	162
3.04500	156
3.04867	152
3.05233	151
3.05600	155
3.05967	162
3.06333	164
3.06700	159
3.07067	152
3.07433	149
3.07800	153
3.08167	159
3.08533	161
3.08900	163
3.09267	165
3.09633	167
3.10000	171
3.10367	173
3.10733	171
3.11100	168
3.11467	159
3.11833	151
3.12200	149
3.12567	152
3.12933	156
3.13300	158
3.13667	160
3.14033	159
3.14400	156
3.14767	152
3.15133	151
3.15500	152
3.15867	151
3.16233	150
3.16600	148
3.16967	145
3.17333	142
3.17700	144
3.18067	151
3.18433	157
3.18800	162
3.19167	164
3.19533	166
3.19900	169
3.20267	173
3.20633	171
3.21000	167
3.21367	161
3.21733	154
3.22100	148
3.22467	146
3.22833	143
3.23200	136
3.23567	128
3.23933	129
3.24300	131
3.24667	130
3.25033	126
3.25400	121
3.25767	121
3.26133	125
3.26500	126
3.26867	127
3.27233	132
3.27600	138
3.27967	144
3.28333	147
3.28700	155
3.29067	161
3.29433	163
3.29800	159
3.30167	148
3.30533	137
3.30900	130
3.31267	127
3.31633	129
3.32000	135
3.32367	144
3.32733	151
3.33100	151
3.33467	147
3.33833	139
3.34200	133
3.34567	131
3.34933	131
3.35300	132
3.35667	133
3.36033	133
3.36400	135
3.36767	139
3.37133	141
3.37500	140
3.37867	133
3.38233	125
3.38600	120
3.38967	118
3.39333	118
3.39700	116
3.40067	116
3.40433	117
3.40800	120
3.41167	131
3.41533	149
3.41900	158
3.42267	152
3.42633	138
3.43000	130
3.43367	131
3.43733	137
3.44100	140
3.44467	136
3.44833	130
3.45200	129
3.45567	128
3.45933	128
3.46300	123
3.46667	121
3.47033	122
3.47400	124
3.47767	125
3.48133	122
3.48500	117
3.48867	115
3.49233	117
3.49600	121
3.49967	122
3.50333	116
3.50700	110
3.51067	109
3.51433	110
3.51800	110
3.52167	110
3.52533	111
3.52900	108
3.53267	108
3.53633	114
3.54000	117
3.54367	116
3.54733	114
3.55100	112
3.55467	114
3.55833	119
3.56200	122
3.56567	126
3.56933	127
3.57300	126
3.57667	123
3.58033	116
3.58400	108
3.58767	99
3.59133	93
3.59500	88
3.59867	86
3.60233	88
3.60600	94
3.60967	102
3.61333	113
3.61700	122
3.62067	122
3.62433	111
3.62800	96
3.63167	85
3.63533	79
3.63900	79
3.64267	83
3.64633	89
3.65000	93
3.65367	95
3.65733	99
3.66100	103
3.66467	102
3.66833	96
3.67200	91
3.67567	88
3.67933	91
3.68300	98
3.68667	96
3.69033	90
3.69400	85
3.69767	83
3.70133	89
3.70500	97
3.70867	104
3.71233	105
3.71600	104
3.71967	103
3.72333	100
3.72700	103
3.73067	109
3.73433	112
3.73800	108
3.74167	101
3.74533	96
3.74900	91
3.75267	84
3.75633	77
3.76000	71
3.76367	72
3.76733	75
3.77100	77
3.77467	79
3.77833	81
3.78200	83
3.78567	85
3.78933	89
3.79300	92
3.79667	94
3.80033	94
3.80400	94
3.80767	92
3.81133	88
3.81500	81
3.81867	76
3.82233	71
3.82600	71
3.82967	73
3.83333	70
3.83700	67
3.84067	67
3.84433	69
3.84800	66
3.85167	63
3.85533	61
3.85900	59
3.86267	56
3.86633	61
3.87000	73
3.87367	75
3.87733	70
3.88100	71
3.88467	74
3.88833	77
3.89200	81
3.89567	79
3.89933	76
3.90300	76
3.90667	78
3.91033	81
3.91400	81
3.91767	78
3.92133	71
3.92500	66
3.92867	67
3.93233	69
3.93600	74
3.93967	80
3.94333	79
3.94700	76
3.95067	76
3.95433	76
3.95800	77
3.96167	73
3.96533	65
3.96900	60
3.97267	61
3.97633	63
3.98000	64
3.98367	69
3.98733	79
3.99100	86
3.99467	89
3.99833	84

[Chromatogram (Ch2)]
Interval(msec)	220
# of Points	1091
Start Time(min)	0.002
End Time(min)	3.998
R.Time (min)	Intensity
0.00167	-0
0.00533	-0
0.00900	-0
0.01267	-0
0.01633	-0
0.02000	-0
0.02367	-0
0.02733	-0
0.03100	-0
0.03467	-0
0.03833	-0
0.04200	-1
0.04567	-1
0.04933	-2
0.05300	-2
0.05667	-3
0.06033	-3
0.06400	-4
0.06767	-4
0.07133	-4
0.07500	-4
0.07867	-5
0.08233	-4
0.08600	-4
0.08967	-4
0.09333	-4
0.09700	-3
0.10067	-3
0.10433	-3
0.10800	-3
0.11167	-2
0.11533	-2
0.11900	-2
0.12267	-1
0.12633	-1
0.13000	-1
0.13367	-1
0.13733	-1
0.14100	-0
0.14467	-0
0.14833	0
0.15200	0
0.15567	1
0.15933	1
0.16300	1
0.16667	2
0.17033	2
0.17400	3
0.17767	3
0.18133	3
0.18500	3
0.18867	3
0.19233	3
0.19600	3
0.19967	3
0.20333	2
0.20700	2
0.21067	1
0.21433	1
0.21800	1
0.22167	0
0.22533	0
0.22900	-0
0.23267	-0
0.23633	-1
0.24000	-1
0.24367	-1
0.24733	-2
0.25100	-2
0.25467	-2
0.25833	-2
0.26200	-2
0.26567	-2
0.26933	-1
0.27300	-1
0.27667	-1
0.28033	-0
0.28400	-0
0.28767	0
0.29133	0
0.29500	0
0.29867	1
0.30233	1
0.30600	1
0.30967	1
0.31333	1
0.31700	1
0.32067	1
0.32433	1
0.32800	1
0.33167	1
0.33533	1
0.33900	1
0.34267	2
0.34633	2
0.35000	2
0.35367	2
0.35733	3
0.36100	2
0.36467	2
0.36833	2
0.37200	2
0.37567	1
0.37933	1
0.38300	1
0.38667	0
0.39033	-0
0.39400	-1
0.39767	-1
0.40133	-2
0.40500	-2
0.40867	-2
0.41233	-1
0.41600	-1
0.41967	-1
0.42333	-0
0.42700	-0
0.43067	-0
0.43433	-0
0.43800	-0
0.44167	-0
0.44533	0
0.44900	0
0.45267	0
0.45633	0
0.46000	0
0.46367	0
0.46733	0
0.47100	-0
0.47467	-1
0.47833	-1
0.48200	-1
0.48567	-2
0.48933	-2
0.49300	-2
0.49667	-2
0.50033	-2
0.50400	-2
0.50767	-2
0.51133	-2
0.51500	-2
0.51867	-2
0.52233	-2
0.52600	-2
0.52967	-1
0.53333	-1
0.53700	-1
0.54067	-0
0.54433	-0
0.54800	-0
0.55167	-0
0.55533	-0
0.55900	-0
0.56267	0
0.56633	0
0.57000	0
0.57367	-0
0.57733	-0
0.58100	-0
0.58467	-0
0.58833	-0
0.59200	-0
0.59567	-0
0.59933	-0
0.60300	-0
0.60667	-0
0.61033	-0
0.61400	-0
0.61767	-1
0.62133	-1
0.62500	-1
0.62867	-1
0.63233	-1
0.63600	-1
0.63967	-1
0.64333	-1
0.64700	-1
0.65067	-1
0.65433	-1
0.65800	-2
0.66167	-2
0.66533	-2
0.66900	-2
0.67267	-2
0.67633	-2
0.68000	-2
0.68367	-2
0.68733	-3
0.69100	-3
0.69467	-3
0.69833	-3
0.70200	-3
0.70567	-3
0.70933	-3
0.71300	-2
0.71667	-2
0.72033	-2
0.72400	-2
0.72767	-2
0.73133	-2
0.73500	-2
0.73867	-2
0.74233	-1
0.74600	-1
0.74967	-1
0.75333	-0
0.75700	-0
0.76067	0
0.76433	0
0.76800	1
0.77167	1
0.77533	1
0.77900	1
0.78267	1
0.78633	1
0.79000	1
0.79367	1
0.79733	1
0.80100	1
0.80467	0
0.80833	0
0.81200	-0
0.81567	-1
0.81933	-1
0.82300	-1
0.82667	-1
0.83033	-2
0.83400	-2
0.83767	-2
0.84133	-2
0.84500	-2
0.84867	-1
0.85233	-1
0.85600	-1
0.85967	-1
0.86333	-1
0.86700	-0
0.87067	-1
0.87433	-1
0.87800	-1
0.88167	-2
0.88533	-2
0.88900	-3
0.89267	-3
0.89633	-3
0.90000	-4
0.90367	-4
0.90733	-5
0.91100	-5
0.91467	-5
0.91833	-5
0.92200	-6
0.92567	-6
0.92933	-6
0.93300	-6
0.93667	-6
0.94033	-6
0.94400	-5
0.94767	-5
0.95133	-5
0.95500	-5
0.95867	-4
0.96233	-4
0.96600	-4
0.96967	-4
0.97333	-3
0.97700	-3
0.98067	-3
0.98433	-2
0.98800	-2
0.99167	-2
0.99533	-2
0.99900	-2
1.00267	-2
1.00633	-2
1.01000	-1
1.01367	-1
1.01733	-1
1.02100	-1
1.02467	-1
1.02833	-1
1.03200	-1
1.03567	-1
1.03933	-1
1.04300	-1
1.04667	-1
1.05033	-1
1.05400	-1
1.05767	-1
1.06133	-0
1.06500	0
1.06867	0
1.07233	1
1.07600	1
1.07967	1
1.08333	1
1.08700	2
1.09067	2
1.09433	2
1.09800	2
1.10167	1
1.10533	1
1.10900	1
1.11267	1
1.11633	1
1.12000	0
1.12367	-0
1.12733	-0
1.13100	-1
1.13467	-1
1.13833	-1
1.14200	-1
1.14567	-2
1.14933	-1
1.15300	-1
1.15667	-1
1.16033	-1
1.16400	-1
1.16767	-0
1.17133	-0
1.17500	-0
1.17867	-0
1.18233	-0
1.18600	-0
1.18967	-0
1.19333	-0
1.19700	-0
1.20067	-0
1.20433	-1
1.20800	-1
1.21167	-1
1.21533	-0
1.21900	-0
1.22267	-1
1.22633	-1
1.23000	-1
1.23367	-1
1.23733	-2
1.24100	-2
1.24467	-2
1.24833	-2
1.25200	-3
1.25567	-3
1.25933	-3
1.26300	-3
1.26667	-2
1.27033	-2
1.27400	-2
1.27767	-2
1.28133	-2
1.28500	-2
1.28867	-2
1.29233	-2
1.29600	-2
1.29967	-2
1.30333	-2
1.30700	-2
1.31067	-2
1.31433	-2
1.31800	-2
1.32167	-2
1.32533	-1
1.32900	-1
1.33267	-1
1.33633	-0
1.34000	0
1.34367	0
1.34733	0
1.35100	0
1.35467	0
1.35833	0
1.36200	0
1.36567	0
1.36933	0
1.37300	1
1.37667	1
1.38033	1
1.38400	1
1.38767	1
1.39133	1
1.39500	2
1.39867	2
1.40233	2
1.40600	2
1.40967	1
1.41333	1
1.41700	1
1.42067	1
1.42433	0
1.42800	0
1.43167	0
1.43533	-0
1.43900	-0
1.44267	-1
1.44633	-1
1.45000	-1
1.45367	-1
1.45733	-1
1.46100	-1
1.46467	-1
1.46833	-2
1.47200	-2
1.47567	-3
1.47933	-3
1.48300	-3
1.48667	-4
1.49033	-4
1.49400	-4
1.49767	-4
1.50133	-4
1.50500	-4
1.50867	-4
1.51233	-4
1.51600	-4
1.51967	-4
1.52333	-4
1.52700	-4
1.53067	-4
1.53433	-4
1.53800	-4
1.54167	-4
1.54533	-4
1.54900	-5
1.55267	-5
1.55633	-5
1.56000	-5
1.56367	-5
1.56733	-5
1.57100	-5
1.57467	-5
1.57833	-5
1.58200	-5
1.58567	-5
1.58933	-5
1.59300	-5
1.59667	-5
1.60033	-6
1.60400	-7
1.60767	-8
1.61133	-9
1.61500	-11
1.61867	-13
1.62233	-15
1.62600	-17
1.62967	-20
1.63333	-23
1.63700	-26
1.64067	-29
1.64433	-32
1.64800	-35
1.65167	-39
1.65533	-42
1.65900	-46
1.66267	-49
1.66633	-53
1.67000	-57
1.67367	-62
1.67733	-66
1.68100	-71
1.68467	-76
1.68833	-81
1.69200	-86
1.69567	-90
1.69933	-94
1.70300	-97
1.70667	-100
1.71033	-103
1.71400	-104
1.71767	-105
1.72133	-106
1.72500	-106
1.72867	-106
1.73233	-106
1.73600	-106
1.73967	-105
1.74333	-105
1.74700	-105
1.75067	-106
1.75433	-107
1.75800	-108
1.76167	-110
1.76533	-111
1.76900	-112
1.77267	-113
1.77633	-113
1.78000	-113
1.78367	-113
1.78733	-112
1.79100	-112
1.79467	-112
1.79833	-112
1.80200	-112
1.80567	-112
1.80933	-112
1.81300	-112
1.81667	-112
1.82033	-112
1.82400	-112
1.82767	-112
1.83133	-113
1.83500	-113
1.83867	-114
1.84233	-115
1.84600	-115
1.84967	-115
1.85333	-115
1.85700	-114
1.86067	-113
1.86433	-113
1.86800	-112
1.87167	-112
1.87533	-112
1.87900	-112
1.88267	-112
1.88633	-113
1.89000	-113
1.89367	-113
1.89733	-112
1.90100	-112
1.90467	-111
1.90833	-111
1.91200	-111
1.91567	-111
1.91933	-111
1.92300	-111
1.92667	-111
1.93033	-111
1.93400	-111
1.93767	-111
1.94133	-110
1.94500	-110
1.94867	-109
1.95233	-109
1.95600	-108
1.95967	-108
1.96333	-107
1.96700	-107
1.97067	-107
1.97433	-107
1.97800	-107
1.98167	-107
1.98533	-108
1.98900	-108
1.99267	-108
1.99633	-108
2.00000	-108
2.00367	-107
2.00733	-106
2.01100	-105
2.01467	-104
2.01833	-103
2.02200	-103
2.02567	-103
2.02933	-103
2.03300	-103
2.03667	-103
2.04033	-103
2.04400	-103
2.04767	-103
2.05133	-102
2.05500	-102
2.05867	-102
2.06233	-102
2.06600	-102
2.06967	-102
2.07333	-102
2.07700	-102
2.08067	-101
2.08433	-101
2.08800	-101
2.09167	-101
2.09533	-101
2.09900	-100
2.10267	-100
2.10633	-99
2.11000	-98
2.11367	-97
2.11733	-97
2.12100	-96
2.12467	-95
2.12833	-95
2.13200	-95
2.13567	-94
2.13933	-94
2.14300	-93
2.14667	-93
2.15033	-93
2.15400	-92
2.15767	-92
2.16133	-92
2.16500	-91
2.16867	-91
2.17233	-91
2.17600	-91
2.17967	-91
2.18333	-91
2.18700	-92
2.19067	-92
2.19433	-91
2.19800	-91
2.20167	-91
2.20533	-91
2.20900	-90
2.21267	-90
2.21633	-90
2.22000	-89
2.22367	-89
2.22733	-88
2.23100	-88
2.23467	-87
2.23833	-87
2.24200	-86
2.24567	-86
2.24933	-85
2.25300	-85
2.25667	-84
2.26033	-84
2.26400	-84
2.26767	-84
2.27133	-84
2.27500	-84
2.27867	-84
2.28233	-84
2.28600	-83
2.28967	-82
2.29333	-81
2.29700	-81
2.30067	-80
2.30433	-80
2.30800	-80
2.31167	-80
2.31533	-80
2.31900	-80
2.32267	-80
2.32633	-80
2.33000	-79
2.33367	-79
2.33733	-78
2.34100	-78
2.34467	-79
2.34833	-79
2.35200	-79
2.35567	-79
2.35933	-78
2.36300	-77
2.36667	-75
2.37033	-73
2.37400	-70
2.37767	-66
2.38133	-62
2.38500	-58
2.38867	-53
2.39233	-48
2.39600	-43
2.39967	-38
2.40333	-33
2.40700	-28
2.41067	-24
2.41433	-21
2.41800	-18
2.42167	-15
2.42533	-13
2.42900	-12
2.43267	-11
2.43633	-10
2.44000	-9
2.44367	-9
2.44733	-8
2.45100	-7
2.45467	-6
2.45833	-5
2.46200	-5
2.46567	-4
2.46933	-3
2.47300	-2
2.47667	-1
2.48033	0
2.48400	1
2.48767	2
2.49133	4
2.49500	5
2.49867	6
2.50233	6
2.50600	7
2.50967	7
2.51333	8
2.51700	8
2.52067	8
2.52433	8
2.52800	9
2.53167	9
2.53533	10
2.53900	11
2.54267	12
2.54633	13
2.55000	13
2.55367	13
2.55733	13
2.56100	13
2.56467	13
2.56833	13
2.57200	14
2.57567	14
2.57933	14
2.58300	14
2.58667	14
2.59033	14
2.59400	14
2.59767	14
2.60133	15
2.60500	15
2.60867	15
2.61233	16
2.61600	16
2.61967	16
2.62333	17
2.62700	17
2.63067	17
2.63433	17
2.63800	17
2.64167	17
2.64533	17
2.64900	17
2.65267	18
2.65633	18
2.66000	19
2.66367	19
2.66733	19
2.67100	20
2.67467	20
2.67833	21
2.68200	21
2.68567	22
2.68933	22
2.69300	23
2.69667	24
2.70033	24
2.70400	25
2.70767	25
2.71133	25
2.71500	25
2.71867	25
2.72233	25
2.72600	25
2.72967	24
2.73333	24
2.73700	24
2.74067	24
2.74433	24
2.74800	25
2.75167	25
2.75533	25
2.75900	25
2.76267	25
2.76633	26
2.77000	26
2.77367	27
2.77733	27
2.78100	27
2.78467	27
2.78833	26
2.79200	26
2.79567	25
2.79933	25
2.80300	24
2.80667	24
2.81033	24
2.81400	24
2.81767	24
2.82133	24
2.82500	24
2.82867	24
2.83233	24
2.83600	24
2.83967	23
2.84333	22
2.84700	20
2.85067	16
2.85433	9
2.85800	0
2.86167	-13
2.86533	-29
2.86900	-50
2.87267	-75
2.87633	-105
2.88000	-139
2.88367	-177
2.88733	-220
2.89100	-265
2.89467	-314
2.89833	-365
2.90200	-417
2.90567	-472
2.90933	-527
2.91300	-582
2.91667	-637
2.92033	-692
2.92400	-746
2.92767	-798
2.93133	-849
2.93500	-902
2.93867	-958
2.94233	-1016
2.94600	-1064
2.94967	-1094
2.95333	-1099
2.95700	-1077
2.96067	-1034
2.96433	-973
2.96800	-901
2.97167	-822
2.97533	-741
2.97900	-661
2.98267	-585
2.98633	-514
2.99000	-448
2.99367	-389
2.99733	-335
3.00100	-288
3.00467	-247
3.00833	-211
3.01200	-179
3.01567	-152
3.01933	-128
3.02300	-108
3.02667	-91
3.03033	-76
3.03400	-63
3.03767	-52
3.04133	-43
3.04500	-35
3.04867	-28
3.05233	-22
3.05600	-17
3.05967	-13
3.06333	-9
3.06700	-6
3.07067	-4
3.07433	-1
3.07800	0
3.08167	2
3.08533	4
3.08900	5
3.09267	7
3.09633	8
3.10000	9
3.10367	10
3.10733	11
3.11100	12
3.11467	12
3.11833	13
3.12200	13
3.12567	14
3.12933	14
3.13300	15
3.13667	15
3.14033	16
3.14400	16
3.14767	17
3.15133	17
3.15500	18
3.15867	18
3.16233	18
3.16600	18
3.16967	19
3.17333	19
3.17700	19
3.18067	19
3.18433	20
3.18800	20
3.19167	20
3.19533	21
3.19900	21
3.20267	21
3.20633	21
3.21000	22
3.21367	22
3.21733	22
3.22100	22
3.22467	22
3.22833	22
3.23200	22
3.23567	23
3.23933	23
3.24300	23
3.24667	23
3.25033	23
3.25400	23
3.25767	23
3.26133	23
3.26500	23
3.26867	23
3.27233	23
3.27600	23
3.27967	23
3.28333	23
3.28700	23
3.29067	23
3.29433	23
3.29800	23
3.30167	23
3.30533	23
3.30900	24
3.31267	24
3.31633	24
3.32000	25
3.32367	25
3.32733	25
3.33100	25
3.33467	25
3.33833	25
3.34200	25
3.34567	25
3.34933	24
3.35300	24
3.35667	23
3.36033	23
3.36400	23
3.36767	23
3.37133	23
3.37500	23
3.37867	23
3.38233	23
3.38600	24
3.38967	24
3.39333	24
3.39700	25
3.40067	25
3.40433	26
3.40800	26
3.41167	26
3.41533	27
3.41900	27
3.42267	27
3.42633	28
3.43000	28
3.43367	28
3.43733	28
3.44100	28
3.44467	28
3.44833	28
3.45200	28
3.45567	28
3.45933	28
3.46300	28
3.46667	27
3.47033	27
3.47400	27
3.47767	27
3.48133	27
3.48500	27
3.48867	27
3.49233	27
3.49600	27
3.49967	28
3.50333	28
3.50700	28
3.51067	28
3.51433	29
3.51800	29
3.52167	29
3.52533	29
3.52900	28
3.53267	28
3.53633	28
3.54000	28
3.54367	28
3.54733	27
3.55100	27
3.55467	27
3.55833	27
3.56200	27
3.56567	27
3.56933	27
3.57300	27
3.57667	27
3.58033	27
3.58400	27
3.58767	27
3.59133	27
3.59500	27
3.59867	26
3.60233	26
3.60600	26
3.60967	26
3.61333	26
3.61700	26
3.62067	26
3.62433	26
3.62800	25
3.63167	25
3.63533	25
3.63900	25
3.64267	25
3.64633	25
3.65000	25
3.65367	25
3.65733	25
3.66100	25
3.66467	25
3.66833	25
3.67200	25
3.67567	25
3.67933	25
3.68300	26
3.68667	26
3.69033	26
3.69400	26
3.69767	26
3.70133	27
3.70500	27
3.70867	27
3.71233	27
3.71600	27
3.71967	27
3.72333	27
3.72700	27
3.73067	27
3.73433	27
3.73800	27
3.74167	27
3.74533	27
3.74900	27
3.75267	27
3.75633	27
3.76000	27
3.76367	27
3.76733	27
3.77100	27
3.77467	27
3.77833	27
3.78200	28
3.78567	28
3.78933	28
3.79300	28
3.79667	28
3.80033	28
3.80400	28
3.80767	28
3.81133	28
3.81500	28
3.81867	28
3.82233	28
3.82600	28
3.82967	28
3.83333	28
3.83700	28
3.84067	28
3.84433	28
3.84800	28
3.85167	28
3.85533	28
3.85900	28
3.86267	27
3.86633	27
3.87000	27
3.87367	27
3.87733	27
3.88100	27
3.88467	27
3.88833	27
3.89200	26
3.89567	26
3.89933	26
3.90300	26
3.90667	26
3.91033	26
3.91400	26
3.91767	26
3.92133	26
3.92500	27
3.92867	27
3.93233	27
3.93600	27
3.93967	27
3.94333	27
3.94700	27
3.95067	27
3.95433	28
3.95800	28
3.96167	27
3.96533	27
3.96900	27
3.97267	27
3.97633	27
3.98000	27
3.98367	27
3.98733	27
3.99100	27
3.99467	27
3.99833	26

[Chromatogram (Ch3)]
Interval(msec)	220
# of Points	1091
Start Time(min)	0.002
End Time(min)	3.998
R.Time (min)	Intensity
0.00167	-1
0.00533	1
0.00900	3
0.01267	4
0.01633	5
0.02000	7
0.02367	7
0.02733	7
0.03100	7
0.03467	7
0.03833	6
0.04200	6
0.04567	5
0.04933	5
0.05300	4
0.05667	4
0.06033	5
0.06400	7
0.06767	8
0.07133	9
0.07500	8
0.07867	8
0.08233	8
0.08600	8
0.08967	9
0.09333	10
0.09700	9
0.10067	7
0.10433	7
0.10800	8
0.11167	8
0.11533	6
0.11900	7
0.12267	7
0.12633	8
0.13000	8
0.13367	9
0.13733	10
0.14100	10
0.14467	10
0.14833	10
0.15200	12
0.15567	11
0.15933	10
0.16300	9
0.16667	8
0.17033	9
0.17400	10
0.17767	12
0.18133	13
0.18500	14
0.18867	14
0.19233	12
0.19600	10
0.19967	10
0.20333	11
0.20700	11
0.21067	13
0.21433	14
0.21800	14
0.22167	14
0.22533	12
0.22900	11
0.23267	12
0.23633	12
0.24000	12
0.24367	13
0.24733	14
0.25100	15
0.25467	15
0.25833	13
0.26200	11
0.26567	11
0.26933	11
0.27300	11
0.27667	10
0.28033	8
0.28400	9
0.28767	9
0.29133	8
0.29500	8
0.29867	8
0.30233	8
0.30600	9
0.30967	10
0.31333	13
0.31700	15
0.32067	16
0.32433	17
0.32800	18
0.33167	18
0.33533	17
0.33900	16
0.34267	16
0.34633	17
0.35000	16
0.35367	17
0.35733	18
0.36100	17
0.36467	14
0.36833	13
0.37200	12
0.37567	12
0.37933	10
0.38300	9
0.38667	10
0.39033	13
0.39400	13
0.39767	14
0.40133	13
0.40500	11
0.40867	10
0.41233	11
0.41600	12
0.41967	15
0.42333	15
0.42700	13
0.43067	13
0.43433	13
0.43800	12
0.44167	13
0.44533	15
0.44900	17
0.45267	16
0.45633	15
0.46000	14
0.46367	13
0.46733	11
0.47100	11
0.47467	10
0.47833	12
0.48200	13
0.48567	16
0.48933	17
0.49300	15
0.49667	15
0.50033	15
0.50400	13
0.50767	13
0.51133	14
0.51500	14
0.51867	12
0.52233	12
0.52600	11
0.52967	11
0.53333	12
0.53700	12
0.54067	12
0.54433	11
0.54800	12
0.55167	13
0.55533	14
0.55900	13
0.56267	14
0.56633	16
0.57000	17
0.57367	15
0.57733	12
0.58100	10
0.58467	9
0.58833	11
0.59200	12
0.59567	10
0.59933	8
0.60300	9
0.60667	10
0.61033	8
0.61400	6
0.61767	8
0.62133	11
0.62500	12
0.62867	11
0.63233	12
0.63600	16
0.63967	17
0.64333	14
0.64700	11
0.65067	11
0.65433	12
0.65800	14
0.66167	14
0.66533	14
0.66900	15
0.67267	17
0.67633	16
0.68000	13
0.68367	12
0.68733	12
0.69100	13
0.69467	14
0.69833	16
0.70200	15
0.70567	15
0.70933	14
0.71300	14
0.71667	15
0.72033	15
0.72400	13
0.72767	13
0.73133	14
0.73500	16
0.73867	17
0.74233	15
0.74600	16
0.74967	19
0.75333	19
0.75700	20
0.76067	18
0.76433	15
0.76800	15
0.77167	15
0.77533	16
0.77900	18
0.78267	18
0.78633	18
0.79000	18
0.79367	20
0.79733	21
0.80100	24
0.80467	24
0.80833	22
0.81200	20
0.81567	17
0.81933	14
0.82300	11
0.82667	12
0.83033	14
0.83400	15
0.83767	16
0.84133	18
0.84500	19
0.84867	18
0.85233	18
0.85600	19
0.85967	20
0.86333	20
0.86700	17
0.87067	15
0.87433	14
0.87800	16
0.88167	17
0.88533	16
0.88900	14
0.89267	14
0.89633	16
0.90000	17
0.90367	18
0.90733	18
0.91100	18
0.91467	17
0.91833	19
0.92200	23
0.92567	24
0.92933	26
0.93300	24
0.93667	23
0.94033	22
0.94400	23
0.94767	25
0.95133	26
0.95500	25
0.95867	25
0.96233	25
0.96600	24
0.96967	22
0.97333	22
0.97700	20
0.98067	20
0.98433	20
0.98800	22
0.99167	22
0.99533	21
0.99900	21
1.00267	23
1.00633	23
1.01000	22
1.01367	24
1.01733	24
1.02100	22
1.02467	21
1.02833	22
1.03200	23
1.03567	23
1.03933	23
1.04300	22
1.04667	20
1.05033	19
1.05400	19
1.05767	21
1.06133	22
1.06500	22
1.06867	22
1.07233	23
1.07600	24
1.07967	22
1.08333	19
1.08700	19
1.09067	22
1.09433	24
1.09800	25
1.10167	26
1.10533	25
1.10900	26
1.11267	27
1.11633	28
1.12000	26
1.12367	24
1.12733	23
1.13100	27
1.13467	30
1.13833	28
1.14200	27
1.14567	27
1.14933	29
1.15300	30
1.15667	27
1.16033	25
1.16400	25
1.16767	25
1.17133	23
1.17500	21
1.17867	19
1.18233	17
1.18600	16
1.18967	17
1.19333	19
1.19700	20
1.20067	21
1.20433	21
1.20800	23
1.21167	23
1.21533	22
1.21900	21
1.22267	20
1.22633	18
1.23000	19
1.23367	23
1.23733	25
1.24100	23
1.24467	24
1.24833	25
1.25200	25
1.25567	24
1.25933	21
1.26300	21
1.26667	22
1.27033	24
1.27400	25
1.27767	26
1.28133	27
1.28500	28
1.28867	26
1.29233	26
1.29600	26
1.29967	25
1.30333	23
1.30700	22
1.31067	23
1.31433	22
1.31800	21
1.32167	20
1.32533	22
1.32900	26
1.33267	28
1.33633	27
1.34000	25
1.34367	25
1.34733	27
1.35100	27
1.35467	28
1.35833	30
1.36200	31
1.36567	31
1.36933	29
1.37300	28
1.37667	26
1.38033	24
1.38400	23
1.38767	23
1.39133	24
1.39500	24
1.39867	24
1.40233	25
1.40600	26
1.40967	27
1.41333	26
1.41700	27
1.42067	26
1.42433	27
1.42800	28
1.43167	30
1.43533	32
1.43900	34
1.44267	33
1.44633	31
1.45000	31
1.45367	31
1.45733	31
1.46100	31
1.46467	33
1.46833	31
1.47200	30
1.47567	30
1.47933	30
1.48300	31
1.48667	31
1.49033	32
1.49400	33
1.49767	32
1.50133	30
1.50500	29
1.50867	31
1.51233	31
1.51600	31
1.51967	32
1.52333	32
1.52700	33
1.53067	34
1.53433	34
1.53800	31
1.54167	30
1.54533	28
1.54900	27
1.55267	28
1.55633	30
1.56000	32
1.56367	33
1.56733	34
1.57100	35
1.57467	35
1.57833	34
1.58200	31
1.58567	27
1.58933	27
1.59300	29
1.59667	33
1.60033	34
1.60400	33
1.60767	33
1.61133	32
1.61500	32
1.61867	33
1.62233	32
1.62600	32
1.62967	34
1.63333	35
1.63700	36
1.64067	37
1.64433	38
1.64800	40
1.65167	39
1.65533	38
1.65900	38
1.66267	40
1.66633	42
1.67000	42
1.67367	43
1.67733	43
1.68100	44
1.68467	45
1.68833	45
1.69200	47
1.69567	47
1.69933	45
1.70300	45
1.70667	46
1.71033	47
1.71400	46
1.71767	46
1.72133	44
1.72500	42
1.72867	42
1.73233	44
1.73600	46
1.73967	49
1.74333	49
1.74700	49
1.75067	49
1.75433	48
1.75800	47
1.76167	47
1.76533	50
1.76900	52
1.77267	54
1.77633	54
1.78000	53
1.78367	53
1.78733	54
1.79100	56
1.79467	58
1.79833	58
1.80200	59
1.80567	61
1.80933	64
1.81300	66
1.81667	67
1.82033	68
1.82400	69
1.82767	71
1.83133	70
1.83500	69
1.83867	69
1.84233	68
1.84600	69
1.84967	69
1.85333	69
1.85700	72
1.86067	74
1.86433	73
1.86800	72
1.87167	73
1.87533	75
1.87900	75
1.88267	74
1.88633	74
1.89000	76
1.89367	78
1.89733	80
1.90100	81
1.90467	81
1.90833	83
1.91200	88
1.91567	92
1.91933	94
1.92300	95
1.92667	93
1.93033	91
1.93400	90
1.93767	92
1.94133	94
1.94500	95
1.94867	96
1.95233	97
1.95600	98
1.95967	100
1.96333	100
1.96700	101
1.97067	102
1.97433	101
1.97800	101
1.98167	102
1.98533	103
1.98900	103
1.99267	104
1.99633	106
2.00000	106
2.00367	107
2.00733	110
2.01100	113
2.01467	114
2.01833	116
2.02200	116
2.02567	116
2.02933	118
2.03300	120
2.03667	122
2.04033	122
2.04400	120
2.04767	118
2.05133	117
2.05500	118
2.05867	118
2.06233	121
2.06600	122
2.06967	125
2.07333	127
2.07700	131
2.08067	133
2.08433	135
2.08800	134
2.09167	133
2.09533	133
2.09900	132
2.10267	130
2.10633	131
2.11000	134
2.11367	138
2.11733	140
2.12100	140
2.12467	139
2.12833	139
2.13200	141
2.13567	143
2.13933	144
2.14300	146
2.14667	149
2.15033	153
2.15400	155
2.15767	155
2.16133	155
2.16500	157
2.16867	157
2.17233	157
2.17600	158
2.17967	162
2.18333	163
2.18700	165
2.19067	167
2.19433	169
2.19800	169
2.20167	171
2.20533	173
2.20900	173
2.21267	173
2.21633	172
2.22000	172
2.22367	175
2.22733	179
2.23100	181
2.23467	180
2.23833	181
2.24200	183
2.24567	184
2.24933	182
2.25300	183
2.25667	186
2.26033	188
2.26400	187
2.26767	188
2.27133	189
2.27500	191
2.27867	194
2.28233	197
2.28600	198
2.28967	197
2.29333	196
2.29700	195
2.30067	199
2.30433	204
2.30800	207
2.31167	206
2.31533	205
2.31900	205
2.32267	205
2.32633	207
2.33000	211
2.33367	214
2.33733	215
2.34100	216
2.34467	216
2.34833	218
2.35200	219
2.35567	223
2.35933	226
2.36300	224
2.36667	224
2.37033	224
2.37400	225
2.37767	227
2.38133	227
2.38500	225
2.38867	221
2.39233	221
2.39600	222
2.39967	226
2.40333	230
2.40700	232
2.41067	236
2.41433	239
2.41800	243
2.42167	246
2.42533	246
2.42900	244
2.43267	243
2.43633	244
2.44000	250
2.44367	302
2.44733	435
2.45100	579
2.45467	697
2.45833	762
2.46200	768
2.46567	742
2.46933	710
2.47300	685
2.47667	670
2.48033	653
2.48400	624
2.48767	585
2.49133	541
2.49500	499
2.49867	467
2.50233	446
2.50600	433
2.50967	431
2.51333	437
2.51700	452
2.52067	473
2.52433	490
2.52800	497
2.53167	494
2.53533	480
2.53900	457
2.54267	430
2.54633	401
2.55000	375
2.55367	351
2.55733	331
2.56100	316
2.56467	305
2.56833	299
2.57200	296
2.57567	293
2.57933	291
2.58300	291
2.58667	293
2.59033	296
2.59400	299
2.59767	303
2.60133	306
2.60500	308
2.60867	309
2.61233	310
2.61600	307
2.61967	302
2.62333	295
2.62700	288
2.63067	278
2.63433	269
2.63800	262
2.64167	256
2.64533	249
2.64900	241
2.65267	232
2.65633	224
2.66000	217
2.66367	209
2.66733	200
2.67100	192
2.67467	182
2.67833	172
2.68200	164
2.68567	161
2.68933	161
2.69300	161
2.69667	158
2.70033	157
2.70400	158
2.70767	159
2.71133	161
2.71500	163
2.71867	164
2.72233	166
2.72600	169
2.72967	171
2.73333	175
2.73700	177
2.74067	179
2.74433	181
2.74800	181
2.75167	182
2.75533	184
2.75900	187
2.76267	188
2.76633	187
2.77000	188
2.77367	188
2.77733	191
2.78100	192
2.78467	194
2.78833	198
2.79200	202
2.79567	206
2.79933	211
2.80300	216
2.80667	221
2.81033	227
2.81400	235
2.81767	243
2.82133	252
2.82500	266
2.82867	293
2.83233	347
2.83600	449
2.83967	617
2.84333	874
2.84700	1235
2.85067	1694
2.85433	2232
2.85800	2819
2.86167	3407
2.86533	3947
2.86900	4398
2.87267	4729
2.87633	4917
2.88000	4961
2.88367	4877
2.88733	4691
2.89100	4427
2.89467	4113
2.89833	3773
2.90200	3431
2.90567	3095
2.90933	2776
2.91300	2480
2.91667	2206
2.92033	1958
2.92400	1736
2.92767	1540
2.93133	1368
2.93500	1216
2.93867	1083
2.94233	966
2.94600	865
2.94967	779
2.95333	702
2.95700	634
2.96067	575
2.96433	524
2.96800	481
2.97167	443
2.97533	410
2.97900	381
2.98267	357
2.98633	337
2.99000	320
2.99367	306
2.99733	293
3.00100	281
3.00467	270
3.00833	260
3.01200	251
3.01567	244
3.01933	238
3.02300	231
3.02667	223
3.03033	218
3.03400	212
3.03767	208
3.04133	206
3.04500	204
3.04867	203
3.05233	202
3.05600	202
3.05967	202
3.06333	204
3.06700	205
3.07067	205
3.07433	204
3.07800	204
3.08167	201
3.08533	201
3.08900	201
3.09267	201
3.09633	199
3.10000	197
3.10367	197
3.10733	198
3.11100	199
3.11467	200
3.11833	201
3.12200	203
3.12567	204
3.12933	204
3.13300	202
3.13667	202
3.14033	201
3.14400	199
3.14767	200
3.15133	201
3.15500	202
3.15867	202
3.16233	202
3.16600	203
3.16967	203
3.17333	206
3.17700	208
3.18067	209
3.18433	210
3.18800	212
3.19167	213
3.19533	213
3.19900	214
3.20267	214
3.20633	214
3.21000	215
3.21367	218
3.21733	219
3.22100	222
3.22467	224
3.22833	225
3.23200	225
3.23567	225
3.23933	225
3.24300	227
3.24667	230
3.25033	232
3.25400	233
3.25767	236
3.26133	238
3.26500	240
3.26867	240
3.27233	242
3.27600	243
3.27967	246
3.28333	247
3.28700	247
3.29067	247
3.29433	249
3.29800	252
3.30167	254
3.30533	256
3.30900	258
3.31267	261
3.31633	263
3.32000	262
3.32367	262
3.32733	265
3.33100	267
3.33467	271
3.33833	275
3.34200	277
3.34567	277
3.34933	278
3.35300	277
3.35667	279
3.36033	281
3.36400	283
3.36767	285
3.37133	286
3.37500	285
3.37867	287
3.38233	290
3.38600	291
3.38967	291
3.39333	291
3.39700	291
3.40067	292
3.40433	292
3.40800	293
3.41167	295
3.41533	298
3.41900	298
3.42267	299
3.42633	300
3.43000	302
3.43367	302
3.43733	302
3.44100	303
3.44467	303
3.44833	303
3.45200	301
3.45567	301
3.45933	302
3.46300	304
3.46667	306
3.47033	308
3.47400	308
3.47767	306
3.48133	305
3.48500	305
3.48867	306
3.49233	306
3.49600	306
3.49967	305
3.50333	306
3.50700	308
3.51067	308
3.51433	307
3.51800	307
3.52167	308
3.52533	310
3.52900	309
3.53267	308
3.53633	309
3.54000	309
3.54367	308
3.54733	306
3.55100	305
3.55467	305
3.55833	305
3.56200	304
3.56567	304
3.56933	303
3.57300	302
3.57667	303
3.58033	305
3.58400	308
3.58767	312
3.59133	314
3.59500	313
3.59867	312
3.60233	311
3.60600	308
3.60967	304
3.61333	302
3.61700	301
3.62067	302
3.62433	302
3.62800	301
3.63167	304
3.63533	306
3.63900	307
3.64267	307
3.64633	309
3.65000	311
3.65367	310
3.65733	306
3.66100	301
3.66467	298
3.66833	299
3.67200	300
3.67567	301
3.67933	302
3.68300	302
3.68667	301
3.69033	298
3.69400	297
3.69767	297
3.70133	299
3.70500	300
3.70867	300
3.71233	302
3.71600	302
3.71967	302
3.72333	303
3.72700	304
3.73067	303
3.73433	301
3.73800	301
3.74167	303
3.74533	304
3.74900	300
3.75267	297
3.75633	295
3.76000	293
3.76367	289
3.76733	281
3.77100	269
3.77467	257
3.77833	250
3.78200	248
3.78567	253
3.78933	261
3.79300	273
3.79667	287
3.80033	302
3.80400	319
3.80767	337
3.81133	354
3.81500	371
3.81867	387
3.82233	403
3.82600	420
3.82967	439
3.83333	455
3.83700	468
3.84067	482
3.84433	496
3.84800	507
3.85167	518
3.85533	527
3.85900	533
3.86267	540
3.86633	548
3.87000	555
3.87367	563
3.87733	568
3.88100	572
3.88467	574
3.88833	576
3.89200	579
3.89567	582
3.89933	582
3.90300	582
3.90667	583
3.91033	587
3.91400	589
3.91767	590
3.92133	590
3.92500	590
3.92867	591
3.93233	592
3.93600	594
3.93967	596
3.94333	596
3.94700	597
3.95067	597
3.95433	594
3.95800	592
3.96167	591
3.96533	592
3.96900	593
3.97267	594
3.97633	594
3.98000	593
3.98367	592
3.98733	590
3.99100	588
3.99467	586
3.99833	581

[Status Trace (Column Oven Temperature)]
Interval(msec)	1000
# of Points	239
Start Time(min)	0.013
End Time(min)	3.980
Intensity Units	
Intensity Multiplier	1
R.Time (min)	Intensity
0.01292	35.01
0.02958	35.01
0.04625	35.03
0.06292	35.04
0.07958	35.04
0.09625	35.05
0.11292	35.06
0.12958	35.07
0.14625	35.04
0.16292	35.03
0.17958	35.01
0.19625	35.01
0.21292	35.01
0.22958	35.02
0.24625	35.03
0.26292	35.03
0.27958	35.03
0.29625	35.02
0.31292	35.02
0.32958	35.01
0.34625	34.99
0.36292	34.99
0.37958	35.00
0.39625	35.00
0.41292	35.00
0.42958	35.00
0.44625	34.99
0.46292	34.98
0.47958	34.99
0.49625	35.00
0.51292	35.00
0.52958	34.99
0.54625	34.99
0.56292	34.99
0.57958	34.98
0.59625	34.99
0.61292	35.00
0.62958	34.99
0.64625	34.99
0.66292	34.99
0.67958	34.99
0.69625	35.00
0.71292	35.00
0.72958	34.99
0.74625	34.99
0.76292	34.98
0.77958	34.97
0.79625	34.96
0.81292	34.97
0.82958	34.97
0.84625	34.97
0.86292	34.96
0.87958	34.99
0.89625	35.01
0.91292	35.03
0.92958	35.04
0.94625	35.04
0.96292	35.04
0.97958	35.05
0.99625	35.05
1.01292	35.04
1.02958	35.03
1.04625	35.03
1.06292	35.01
1.07958	35.00
1.09625	35.00
1.11292	35.00
1.12958	35.00
1.14625	35.00
1.16292	35.00
1.17958	34.99
1.19625	34.99
1.21292	34.99
1.22958	35.00
1.24625	35.01
1.26292	35.01
1.27958	35.00
1.29625	35.01
1.31292	35.01
1.32958	35.00
1.34625	34.99
1.36292	34.99
1.37958	34.98
1.39625	34.96
1.41292	34.96
1.42958	34.96
1.44625	34.97
1.46292	34.97
1.47958	34.98
1.49625	34.99
1.51292	35.00
1.52958	35.01
1.54625	35.02
1.56292	35.02
1.57958	35.03
1.59625	35.07
1.61292	35.14
1.62958	35.26
1.64625	35.45
1.66292	35.71
1.67958	36.06
1.69625	36.44
1.71292	36.79
1.72958	37.10
1.74625	37.43
1.76292	37.78
1.77958	38.10
1.79625	38.43
1.81292	38.75
1.82958	39.09
1.84625	39.44
1.86292	39.75
1.87958	40.09
1.89625	40.41
1.91292	40.73
1.92958	41.07
1.94625	41.39
1.96292	41.71
1.97958	42.05
1.99625	42.38
2.01292	42.69
2.02958	43.02
2.04625	43.35
2.06292	43.68
2.07958	44.01
2.09625	44.34
2.11292	44.63
2.12958	44.98
2.14625	45.29
2.16292	45.60
2.17958	45.95
2.19625	46.28
2.21292	46.61
2.22958	46.96
2.24625	47.28
2.26292	47.60
2.27958	47.94
2.29625	48.25
2.31292	48.59
2.32958	48.90
2.34625	49.24
2.36292	49.53
2.37958	49.65
2.39625	49.68
2.41292	49.67
2.42958	49.69
2.44625	49.71
2.46292	49.71
2.47958	49.72
2.49625	49.72
2.51292	49.75
2.52958	49.77
2.54625	49.77
2.56292	49.80
2.57958	49.81
2.59625	49.83
2.61292	49.84
2.62958	49.84
2.64625	49.85
2.66292	49.86
2.67958	49.85
2.69625	49.84
2.71292	49.85
2.72958	49.86
2.74625	49.87
2.76292	49.86
2.77958	49.85
2.79625	49.87
2.81292	49.88
2.82958	49.89
2.84625	49.91
2.86292	49.93
2.87958	49.94
2.89625	49.95
2.91292	49.95
2.92958	49.95
2.94625	49.94
2.96292	49.94
2.97958	49.95
2.99625	49.95
3.01292	49.96
3.02958	49.97
3.04625	50.00
3.06292	50.01
3.07958	50.02
3.09625	50.04
3.11292	50.04
3.12958	50.05
3.14625	50.05
3.16292	50.05
3.17958	50.05
3.19625	50.05
3.21292	50.05
3.22958	50.06
3.24625	50.07
3.26292	50.07
3.27958	50.08
3.29625	50.08
3.31292	50.08
3.32958	50.08
3.34625	50.10
3.36292	50.11
3.37958	50.12
3.39625	50.11
3.41292	50.09
3.42958	50.09
3.44625	50.08
3.46292	50.07
3.47958	50.06
3.49625	50.06
3.51292	50.05
3.52958	50.05
3.54625	50.05
3.56292	50.05
3.57958	50.04
3.59625	50.05
3.61292	50.06
3.62958	50.06
3.64625	50.07
3.66292	50.08
3.67958	50.08
3.69625	50.08
3.71292	50.09
3.72958	50.09
3.74625	50.08
3.76292	50.08
3.77958	50.08
3.79625	50.07
3.81292	50.07
3.82958	50.06
3.84625	50.05
3.86292	50.05
3.87958	50.07
3.89625	50.07
3.91292	50.07
3.92958	50.07
3.94625	50.05
3.96292	50.06
3.97958	50.06

[Status Trace (Injection Unit Temperature)]
Interval(msec)	1000
# of Points	239
Start Time(min)	0.013
End Time(min)	3.980
Intensity Units	
Intensity Multiplier	1
R.Time (min)	Intensity
0.01292	99.98
0.02958	99.99
0.04625	99.98
0.06292	99.99
0.07958	99.99
0.09625	99.99
0.11292	99.99
0.12958	99.98
0.14625	99.99
0.16292	99.99
0.17958	99.99
0.19625	99.98
0.21292	99.98
0.22958	99.98
0.24625	99.99
0.26292	99.99
0.27958	99.99
0.29625	99.99
0.31292	99.99
0.32958	99.99
0.34625	99.99
0.36292	99.99
0.37958	99.99
0.39625	99.99
0.41292	99.99
0.42958	99.99
0.44625	99.99
0.46292	99.99
0.47958	99.99
0.49625	99.99
0.51292	99.98
0.52958	99.98
0.54625	99.98
0.56292	99.99
0.57958	99.98
0.59625	99.99
0.61292	99.98
0.62958	99.99
0.64625	99.99
0.66292	99.98
0.67958	99.98
0.69625	99.99
0.71292	99.98
0.72958	99.98
0.74625	99.98
0.76292	99.98
0.77958	99.98
0.79625	99.98
0.81292	99.98
0.82958	99.98
0.84625	99.98
0.86292	99.98
0.87958	99.98
0.89625	99.98
0.91292	99.98
0.92958	99.98
0.94625	99.98
0.96292	99.98
0.97958	99.98
0.99625	99.98
1.01292	99.98
1.02958	99.98
1.04625	99.98
1.06292	99.98
1.07958	99.98
1.09625	99.98
1.11292	99.98
1.12958	99.98
1.14625	99.98
1.16292	99.98
1.17958	99.98
1.19625	99.98
1.21292	99.98
1.22958	99.98
1.24625	99.98
1.26292	99.98
1.27958	99.99
1.29625	99.98
1.31292	99.97
1.32958	99.98
1.34625	99.99
1.36292	99.99
1.37958	99.98
1.39625	99.99
1.41292	99.99
1.42958	99.99
1.44625	99.99
1.46292	99.98
1.47958	99.99
1.49625	99.99
1.51292	99.98
1.52958	99.99
1.54625	99.98
1.56292	99.99
1.57958	99.98
1.59625	99.99
1.61292	99.99
1.62958	99.99
1.64625	99.99
1.66292	99.99
1.67958	99.99
1.69625	99.98
1.71292	99.99
1.72958	99.98
1.74625	99.99
1.76292	99.99
1.77958	99.99
1.79625	99.98
1.81292	99.98
1.82958	99.99
1.84625	99.98
1.86292	99.98
1.87958	99.98
1.89625	99.99
1.91292	99.98
1.92958	99.98
1.94625	99.98
1.96292	99.98
1.97958	99.98
1.99625	99.98
2.01292	99.97
2.02958	99.98
2.04625	99.98
2.06292	99.98
2.07958	99.97
2.09625	99.98
2.11292	99.97
2.12958	99.97
2.14625	99.97
2.16292	99.97
2.17958	99.97
2.19625	99.97
2.21292	99.97
2.22958	99.97
2.24625	99.97
2.26292	99.96
2.27958	99.97
2.29625	99.97
2.31292	99.96
2.32958	99.97
2.34625	99.96
2.36292	99.97
2.37958	99.97
2.39625	99.97
2.41292	99.96
2.42958	99.97
2.44625	99.97
2.46292	99.97
2.47958	99.97
2.49625	99.97
2.51292	99.97
2.52958	99.97
2.54625	99.98
2.56292	99.98
2.57958	99.98
2.59625	99.98
2.61292	99.97
2.62958	99.98
2.64625	99.98
2.66292	99.98
2.67958	99.98
2.69625	99.98
2.71292	99.98
2.72958	99.99
2.74625	99.99
2.76292	99.99
2.77958	99.99
2.79625	99.99
2.81292	99.99
2.82958	100.00
2.84625	99.99
2.86292	100.00
2.87958	100.00
2.89625	100.00
2.91292	100.01
2.92958	100.01
2.94625	100.00
2.96292	100.00
2.97958	100.00
2.99625	100.01
3.01292	100.01
3.02958	100.01
3.04625	100.01
3.06292	100.01
3.07958	100.01
3.09625	100.01
3.11292	100.02
3.12958	100.01
3.14625	100.00
3.16292	100.02
3.17958	100.02
3.19625	100.02
3.21292	100.02
3.22958	100.02
3.24625	100.01
3.26292	100.02
3.27958	100.02
3.29625	100.02
3.31292	100.02
3.32958	100.02
3.34625	100.03
3.36292	100.03
3.37958	100.03
3.39625	100.03
3.41292	100.02
3.42958	100.03
3.44625	100.03
3.46292	100.03
3.47958	100.03
3.49625	100.03
3.51292	100.03
3.52958	100.03
3.54625	100.03
3.56292	100.04
3.57958	100.03
3.59625	100.04
3.61292	100.04
3.62958	100.04
3.64625	100.04
3.66292	100.04
3.67958	100.04
3.69625	100.04
3.71292	100.04
3.72958	100.04
3.74625	100.04
3.76292	100.04
3.77958	100.04
3.79625	100.05
3.81292	100.04
3.82958	100.05
3.84625	100.05
3.86292	100.04
3.87958	100.04
3.89625	100.05
3.91292	100.05
3.92958	100.04
3.94625	100.05
3.96292	100.05
3.97958	100.05

[Status Trace (Carrier Gas Pressure)]
Interval(msec)	1000
# of Points	239
Start Time(min)	0.013
End Time(min)	3.980
Intensity Units	
Intensity Multiplier	1
R.Time (min)	Intensity
0.01292	57.92
0.02958	54.96
0.04625	57.78
0.06292	59.78
0.07958	58.86
0.09625	57.99
0.11292	58.00
0.12958	58.01
0.14625	58.01
0.16292	58.00
0.17958	58.00
0.19625	58.00
0.21292	58.00
0.22958	58.00
0.24625	58.00
0.26292	58.00
0.27958	58.00
0.29625	58.00
0.31292	58.00
0.32958	58.00
0.34625	58.00
0.36292	58.00
0.37958	58.00
0.39625	58.00
0.41292	58.00
0.42958	58.00
0.44625	58.00
0.46292	58.00
0.47958	58.00
0.49625	58.00
0.51292	58.00
0.52958	58.00
0.54625	58.00
0.56292	58.00
0.57958	58.00
0.59625	58.00
0.61292	58.00
0.62958	58.00
0.64625	58.00
0.66292	58.00
0.67958	58.00
0.69625	58.00
0.71292	58.00
0.72958	58.00
0.74625	58.00
0.76292	58.00
0.77958	58.00
0.79625	58.00
0.81292	58.00
0.82958	58.00
0.84625	58.00
0.86292	58.00
0.87958	58.00
0.89625	58.00
0.91292	58.00
0.92958	58.00
0.94625	58.00
0.96292	58.00
0.97958	58.00
0.99625	58.00
1.01292	58.00
1.02958	58.00
1.04625	58.00
1.06292	58.00
1.07958	58.00
1.09625	58.00
1.11292	58.00
1.12958	58.00
1.14625	58.00
1.16292	58.00
1.17958	58.00
1.19625	58.00
1.21292	58.00
1.22958	58.00
1.24625	58.00
1.26292	58.00
1.27958	58.00
1.29625	58.00
1.31292	58.00
1.32958	58.00
1.34625	58.00
1.36292	58.00
1.37958	58.00
1.39625	58.00
1.41292	58.00
1.42958	58.00
1.44625	58.00
1.46292	58.00
1.47958	58.00
1.49625	58.00
1.51292	58.00
1.52958	58.00
1.54625	58.00
1.56292	58.00
1.57958	58.00
1.59625	58.00
1.61292	58.00
1.62958	58.00
1.64625	58.00
1.66292	58.00
1.67958	58.01
1.69625	58.00
1.71292	58.00
1.72958	58.00
1.74625	58.00
1.76292	58.00
1.77958	58.00
1.79625	58.00
1.81292	58.00
1.82958	58.00
1.84625	58.00
1.86292	58.00
1.87958	58.00
1.89625	58.00
1.91292	58.00
1.92958	58.00
1.94625	58.00
1.96292	58.00
1.97958	58.00
1.99625	58.00
2.01292	58.00
2.02958	58.00
2.04625	58.00
2.06292	58.00
2.07958	58.00
2.09625	58.00
2.11292	58.00
2.12958	58.00
2.14625	58.00
2.16292	58.00
2.17958	58.00
2.19625	58.00
2.21292	58.00
2.22958	58.00
2.24625	58.00
2.26292	58.00
2.27958	58.00
2.29625	58.00
2.31292	58.00
2.32958	58.00
2.34625	58.00
2.36292	58.00
2.37958	57.99
2.39625	57.99
2.41292	58.00
2.42958	58.00
2.44625	58.00
2.46292	58.00
2.47958	58.00
2.49625	58.00
2.51292	57.99
2.52958	57.99
2.54625	58.00
2.56292	58.00
2.57958	58.00
2.59625	58.00
2.61292	58.00
2.62958	58.00
2.64625	58.00
2.66292	58.00
2.67958	58.00
2.69625	58.00
2.71292	58.00
2.72958	58.00
2.74625	58.00
2.76292	58.00
2.77958	58.00
2.79625	58.00
2.81292	58.00
2.82958	58.00
2.84625	58.00
2.86292	58.00
2.87958	58.00
2.89625	58.00
2.91292	58.00
2.92958	58.00
2.94625	58.00
2.96292	58.00
2.97958	58.00
2.99625	58.00
3.01292	58.00
3.02958	58.00
3.04625	58.00
3.06292	58.00
3.07958	58.00
3.09625	58.00
3.11292	58.00
3.12958	58.00
3.14625	58.00
3.16292	58.00
3.17958	58.00
3.19625	58.00
3.21292	58.00
3.22958	58.00
3.24625	58.00
3.26292	58.00
3.27958	58.00
3.29625	58.00
3.31292	58.00
3.32958	58.00
3.34625	58.00
3.36292	58.00
3.37958	58.00
3.39625	58.00
3.41292	58.00
3.42958	58.00
3.44625	58.00
3.46292	58.00
3.47958	58.00
3.49625	58.00
3.51292	58.00
3.52958	58.00
3.54625	58.00
3.56292	58.00
3.57958	58.00
3.59625	58.00
3.61292	58.00
3.62958	58.00
3.64625	58.00
3.66292	58.00
3.67958	58.00
3.69625	58.00
3.71292	58.00
3.72958	58.00
3.74625	58.00
3.76292	58.00
3.77958	58.00
3.79625	58.00
3.81292	58.00
3.82958	58.00
3.84625	58.00
3.86292	58.00
3.87958	58.00
3.89625	58.00
3.91292	58.00
3.92958	58.00
3.94625	58.00
3.96292	58.00
3.97958	58.00

[Status Trace (Carrier Gas Flow)]
Interval(msec)	1000
# of Points	239
Start Time(min)	0.013
End Time(min)	3.980
Intensity Units	
Intensity Multiplier	1
R.Time (min)	Intensity
0.01292	34.70
0.02958	34.54
0.04625	34.55
0.06292	34.52
0.07958	34.50
0.09625	34.51
0.11292	34.52
0.12958	34.51
0.14625	34.52
0.16292	34.52
0.17958	34.52
0.19625	34.52
0.21292	34.52
0.22958	34.52
0.24625	34.52
0.26292	34.52
0.27958	34.52
0.29625	34.52
0.31292	34.52
0.32958	34.52
0.34625	34.51
0.36292	34.52
0.37958	34.52
0.39625	34.52
0.41292	34.52
0.42958	34.52
0.44625	34.51
0.46292	34.52
0.47958	34.52
0.49625	34.52
0.51292	34.52
0.52958	34.52
0.54625	34.52
0.56292	34.51
0.57958	34.52
0.59625	34.52
0.61292	34.52
0.62958	34.52
0.64625	34.52
0.66292	34.52
0.67958	34.52
0.69625	34.52
0.71292	34.52
0.72958	34.52
0.74625	34.52
0.76292	34.52
0.77958	34.52
0.79625	34.52
0.81292	34.52
0.82958	34.52
0.84625	34.51
0.86292	34.52
0.87958	34.52
0.89625	34.52
0.91292	34.52
0.92958	34.52
0.94625	34.52
0.96292	34.52
0.97958	34.52
0.99625	34.52
1.01292	34.52
1.02958	34.52
1.04625	34.52
1.06292	34.52
1.07958	34.52
1.09625	34.52
1.11292	34.52
1.12958	34.52
1.14625	34.52
1.16292	34.52
1.17958	34.51
1.19625	34.52
1.21292	34.52
1.22958	34.52
1.24625	34.52
1.26292	34.52
1.27958	34.52
1.29625	34.52
1.31292	34.52
1.32958	34.52
1.34625	34.51
1.36292	34.53
1.37958	34.52
1.39625	34.51
1.41292	34.53
1.42958	34.52
1.44625	34.52
1.46292	34.52
1.47958	34.52
1.49625	34.53
1.51292	34.52
1.52958	34.51
1.54625	34.52
1.56292	34.52
1.57958	34.52
1.59625	34.52
1.61292	34.51
1.62958	34.52
1.64625	34.52
1.66292	34.52
1.67958	34.52
1.69625	34.52
1.71292	34.52
1.72958	34.52
1.74625	34.51
1.76292	34.52
1.77958	34.52
1.79625	34.52
1.81292	34.52
1.82958	34.52
1.84625	34.52
1.86292	34.52
1.87958	34.52
1.89625	34.52
1.91292	34.52
1.92958	34.52
1.94625	34.51
1.96292	34.52
1.97958	34.52
1.99625	34.52
2.01292	34.52
2.02958	34.52
2.04625	34.52
2.06292	34.52
2.07958	34.52
2.09625	34.52
2.11292	34.51
2.12958	34.52
2.14625	34.52
2.16292	34.52
2.17958	34.52
2.19625	34.52
2.21292	34.52
2.22958	34.52
2.24625	34.52
2.26292	34.51
2.27958	34.52
2.29625	34.52
2.31292	34.52
2.32958	34.52
2.34625	34.52
2.36292	34.52
2.37958	34.52
2.39625	34.53
2.41292	34.53
2.42958	34.51
2.44625	34.52
2.46292	34.53
2.47958	34.53
2.49625	34.53
2.51292	34.52
2.52958	34.52
2.54625	34.51
2.56292	34.52
2.57958	34.52
2.59625	34.52
2.61292	34.52
2.62958	34.51
2.64625	34.52
2.66292	34.52
2.67958	34.52
2.69625	34.52
2.71292	34.52
2.72958	34.52
2.74625	34.52
2.76292	34.52
2.77958	34.52
2.79625	34.52
2.81292	34.52
2.82958	34.52
2.84625	34.51
2.86292	34.52
2.87958	34.52
2.89625	34.51
2.91292	34.51
2.92958	34.52
2.94625	34.52
2.96292	34.52
2.97958	34.52
2.99625	34.52
3.01292	34.52
3.02958	34.52
3.04625	34.52
3.06292	34.52
3.07958	34.52
3.09625	34.52
3.11292	34.51
3.12958	34.52
3.14625	34.52
3.16292	34.52
3.17958	34.52
3.19625	34.52
3.21292	34.52
3.22958	34.52
3.24625	34.51
3.26292	34.52
3.27958	34.52
3.29625	34.51
3.31292	34.52
3.32958	34.52
3.34625	34.52
3.36292	34.52
3.37958	34.52
3.39625	34.51
3.41292	34.52
3.42958	34.52
3.44625	34.52
3.46292	34.52
3.47958	34.51
3.49625	34.52
3.51292	34.52
3.52958	34.51
3.54625	34.52
3.56292	34.52
3.57958	34.52
3.59625	34.52
3.61292	34.52
3.62958	34.52
3.64625	34.52
3.66292	34.52
3.67958	34.52
3.69625	34.52
3.71292	34.52
3.72958	34.52
3.74625	34.52
3.76292	34.52
3.77958	34.52
3.79625	34.52
3.81292	34.52
3.82958	34.52
3.84625	34.52
3.86292	34.52
3.87958	34.52
3.89625	34.52
3.91292	34.52
3.92958	34.52
3.94625	34.52
3.96292	34.52
3.97958	34.52

[Status Trace (Column Flow)]
Interval(msec)	1000
# of Points	239
Start Time(min)	0.013
End Time(min)	3.980
Intensity Units	
Intensity Multiplier	1
R.Time (min)	Intensity
0.01292	5.52
0.02958	5.18
0.04625	5.50
0.06292	5.74
0.07958	5.63
0.09625	5.53
0.11292	5.53
0.12958	5.53
0.14625	5.53
0.16292	5.53
0.17958	5.53
0.19625	5.53
0.21292	5.53
0.22958	5.53
0.24625	5.53
0.26292	5.53
0.27958	5.53
0.29625	5.53
0.31292	5.53
0.32958	5.53
0.34625	5.53
0.36292	5.53
0.37958	5.53
0.39625	5.53
0.41292	5.53
0.42958	5.53
0.44625	5.53
0.46292	5.53
0.47958	5.53
0.49625	5.53
0.51292	5.53
0.52958	5.53
0.54625	5.53
0.56292	5.53
0.57958	5.53
0.59625	5.53
0.61292	5.53
0.62958	5.53
0.64625	5.53
0.66292	5.53
0.67958	5.53
0.69625	5.53
0.71292	5.53
0.72958	5.53
0.74625	5.53
0.76292	5.53
0.77958	5.53
0.79625	5.53
0.81292	5.53
0.82958	5.53
0.84625	5.53
0.86292	5.53
0.87958	5.53
0.89625	5.53
0.91292	5.53
0.92958	5.53
0.94625	5.53
0.96292	5.53
0.97958	5.53
0.99625	5.53
1.01292	5.53
1.02958	5.53
1.04625	5.53
1.06292	5.53
1.07958	5.53
1.09625	5.53
1.11292	5.53
1.12958	5.53
1.14625	5.53
1.16292	5.53
1.17958	5.53
1.19625	5.53
1.21292	5.53
1.22958	5.53
1.24625	5.53
1.26292	5.53
1.27958	5.53
1.29625	5.53
1.31292	5.53
1.32958	5.53
1.34625	5.53
1.36292	5.53
1.37958	5.53
1.39625	5.53
1.41292	5.53
1.42958	5.53
1.44625	5.53
1.46292	5.53
1.47958	5.53
1.49625	5.53
1.51292	5.53
1.52958	5.53
1.54625	5.53
1.56292	5.53
1.57958	5.53
1.59625	5.53
1.61292	5.53
1.62958	5.52
1.64625	5.52
1.66292	5.51
1.67958	5.50
1.69625	5.49
1.71292	5.47
1.72958	5.46
1.74625	5.45
1.76292	5.44
1.77958	5.43
1.79625	5.42
1.81292	5.41
1.82958	5.40
1.84625	5.39
1.86292	5.38
1.87958	5.37
1.89625	5.36
1.91292	5.35
1.92958	5.34
1.94625	5.33
1.96292	5.32
1.97958	5.31
1.99625	5.30
2.01292	5.30
2.02958	5.29
2.04625	5.28
2.06292	5.27
2.07958	5.26
2.09625	5.25
2.11292	5.24
2.12958	5.23
2.14625	5.22
2.16292	5.21
2.17958	5.20
2.19625	5.19
2.21292	5.18
2.22958	5.17
2.24625	5.16
2.26292	5.15
2.27958	5.14
2.29625	5.14
2.31292	5.13
2.32958	5.12
2.34625	5.11
2.36292	5.10
2.37958	5.10
2.39625	5.09
2.41292	5.10
2.42958	5.10
2.44625	5.09
2.46292	5.09
2.47958	5.09
2.49625	5.09
2.51292	5.09
2.52958	5.09
2.54625	5.09
2.56292	5.09
2.57958	5.09
2.59625	5.09
2.61292	5.09
2.62958	5.09
2.64625	5.09
2.66292	5.09
2.67958	5.09
2.69625	5.09
2.71292	5.09
2.72958	5.09
2.74625	5.09
2.76292	5.09
2.77958	5.09
2.79625	5.09
2.81292	5.09
2.82958	5.09
2.84625	5.09
2.86292	5.09
2.87958	5.09
2.89625	5.09
2.91292	5.09
2.92958	5.09
2.94625	5.09
2.96292	5.09
2.97958	5.09
2.99625	5.09
3.01292	5.09
3.02958	5.09
3.04625	5.09
3.06292	5.09
3.07958	5.09
3.09625	5.09
3.11292	5.09
3.12958	5.09
3.14625	5.09
3.16292	5.09
3.17958	5.08
3.19625	5.09
3.21292	5.09
3.22958	5.08
3.24625	5.08
3.26292	5.08
3.27958	5.08
3.29625	5.08
3.31292	5.08
3.32958	5.08
3.34625	5.08
3.36292	5.08
3.37958	5.08
3.39625	5.08
3.41292	5.08
3.42958	5.08
3.44625	5.08
3.46292	5.08
3.47958	5.08
3.49625	5.09
3.51292	5.09
3.52958	5.09
3.54625	5.09
3.56292	5.09
3.57958	5.09
3.59625	5.09
3.61292	5.09
3.62958	5.08
3.64625	5.08
3.66292	5.08
3.67958	5.08
3.69625	5.08
3.71292	5.08
3.72958	5.08
3.74625	5.08
3.76292	5.08
3.77958	5.08
3.79625	5.08
3.81292	5.08
3.82958	5.09
3.84625	5.09
3.86292	5.09
3.87958	5.08
3.89625	5.08
3.91292	5.08
3.92958	5.08
3.94625	5.09
3.96292	5.09
3.97958	5.08

[Status Trace (Linear Velocity)]
Interval(msec)	1000
# of Points	239
Start Time(min)	0.013
End Time(min)	3.980
Intensity Units	
Intensity Multiplier	1
R.Time (min)	Intensity
0.01292	38.97
0.02958	37.02
0.04625	38.87
0.06292	40.18
0.07958	39.58
0.09625	39.00
0.11292	39.01
0.12958	39.02
0.14625	39.02
0.16292	39.02
0.17958	39.02
0.19625	39.02
0.21292	39.02
0.22958	39.02
0.24625	39.02
0.26292	39.02
0.27958	39.02
0.29625	39.02
0.31292	39.02
0.32958	39.02
0.34625	39.02
0.36292	39.02
0.37958	39.02
0.39625	39.02
0.41292	39.02
0.42958	39.02
0.44625	39.02
0.46292	39.02
0.47958	39.02
0.49625	39.02
0.51292	39.02
0.52958	39.02
0.54625	39.02
0.56292	39.02
0.57958	39.02
0.59625	39.02
0.61292	39.02
0.62958	39.02
0.64625	39.02
0.66292	39.02
0.67958	39.02
0.69625	39.02
0.71292	39.02
0.72958	39.02
0.74625	39.02
0.76292	39.02
0.77958	39.02
0.79625	39.02
0.81292	39.02
0.82958	39.02
0.84625	39.02
0.86292	39.02
0.87958	39.02
0.89625	39.02
0.91292	39.02
0.92958	39.01
0.94625	39.02
0.96292	39.01
0.97958	39.01
0.99625	39.01
1.01292	39.01
1.02958	39.02
1.04625	39.02
1.06292	39.02
1.07958	39.02
1.09625	39.02
1.11292	39.02
1.12958	39.02
1.14625	39.02
1.16292	39.02
1.17958	39.02
1.19625	39.02
1.21292	39.02
1.22958	39.02
1.24625	39.02
1.26292	39.02
1.27958	39.02
1.29625	39.02
1.31292	39.02
1.32958	39.02
1.34625	39.02
1.36292	39.02
1.37958	39.02
1.39625	39.02
1.41292	39.02
1.42958	39.02
1.44625	39.02
1.46292	39.02
1.47958	39.02
1.49625	39.02
1.51292	39.02
1.52958	39.02
1.54625	39.02
1.56292	39.02
1.57958	39.01
1.59625	39.01
1.61292	39.01
1.62958	39.00
1.64625	38.98
1.66292	38.95
1.67958	38.92
1.69625	38.88
1.71292	38.85
1.72958	38.82
1.74625	38.79
1.76292	38.75
1.77958	38.72
1.79625	38.69
1.81292	38.66
1.82958	38.63
1.84625	38.60
1.86292	38.57
1.87958	38.54
1.89625	38.51
1.91292	38.48
1.92958	38.45
1.94625	38.41
1.96292	38.38
1.97958	38.35
1.99625	38.32
2.01292	38.29
2.02958	38.26
2.04625	38.23
2.06292	38.20
2.07958	38.17
2.09625	38.14
2.11292	38.12
2.12958	38.09
2.14625	38.06
2.16292	38.03
2.17958	38.00
2.19625	37.97
2.21292	37.94
2.22958	37.91
2.24625	37.88
2.26292	37.85
2.27958	37.82
2.29625	37.79
2.31292	37.76
2.32958	37.74
2.34625	37.70
2.36292	37.67
2.37958	37.66
2.39625	37.66
2.41292	37.66
2.42958	37.66
2.44625	37.66
2.46292	37.66
2.47958	37.66
2.49625	37.66
2.51292	37.65
2.52958	37.65
2.54625	37.65
2.56292	37.65
2.57958	37.65
2.59625	37.65
2.61292	37.65
2.62958	37.65
2.64625	37.65
2.66292	37.65
2.67958	37.65
2.69625	37.65
2.71292	37.65
2.72958	37.65
2.74625	37.65
2.76292	37.65
2.77958	37.65
2.79625	37.65
2.81292	37.64
2.82958	37.64
2.84625	37.64
2.86292	37.64
2.87958	37.64
2.89625	37.64
2.91292	37.64
2.92958	37.64
2.94625	37.64
2.96292	37.64
2.97958	37.64
2.99625	37.64
3.01292	37.64
3.02958	37.64
3.04625	37.63
3.06292	37.63
3.07958	37.63
3.09625	37.63
3.11292	37.63
3.12958	37.63
3.14625	37.63
3.16292	37.63
3.17958	37.63
3.19625	37.63
3.21292	37.63
3.22958	37.63
3.24625	37.63
3.26292	37.63
3.27958	37.63
3.29625	37.63
3.31292	37.63
3.32958	37.63
3.34625	37.63
3.36292	37.63
3.37958	37.62
3.39625	37.62
3.41292	37.63
3.42958	37.63
3.44625	37.63
3.46292	37.63
3.47958	37.63
3.49625	37.63
3.51292	37.63
3.52958	37.63
3.54625	37.63
3.56292	37.63
3.57958	37.63
3.59625	37.63
3.61292	37.63
3.62958	37.63
3.64625	37.63
3.66292	37.63
3.67958	37.63
3.69625	37.63
3.71292	37.63
3.72958	37.63
3.74625	37.63
3.76292	37.63
3.77958	37.63
3.79625	37.63
3.81292	37.63
3.82958	37.63
3.84625	37.63
3.86292	37.63
3.87958	37.63
3.89625	37.63
3.91292	37.63
3.92958	37.63
3.94625	37.63
3.96292	37.63
3.97958	37.63

