[Header]
Application Name	LabSolutions
Version	5.110
Data File Name	C:\Users\User\Desktop\GC Analyses\Jack\Nachusa Grasslands Sampling\T3 Timepoint July 12th\T3_07122022_015.gcd
Output Date	3/14/2023
Output Time	3:43:30 PM

[File Information]
Type	Data File
Generated	3/13/2023 4:03:00 PM
Generated by	System Administrator
Modified	3/13/2023 4:09:43 PM
Modified by	System Administrator

[Sample Information]
Operator Name	System Administrator
Acquired	3/13/2023 4:05:43 PM
Sample Type	0:Unknown
Level	0
Sample Name	015
Sample ID	015
ISTD Amount1	1
ISTD Amount2	1
ISTD Amount3	1
ISTD Amount4	1
ISTD Amount5	1
ISTD Amount6	1
ISTD Amount7	1
ISTD Amount8	1
ISTD Amount9	1
ISTD Amount10	1
ISTD Amount11	1
ISTD Amount12	1
ISTD Amount13	1
ISTD Amount14	1
ISTD Amount15	1
ISTD Amount16	1
ISTD Amount17	1
ISTD Amount18	1
ISTD Amount19	1
ISTD Amount20	1
ISTD Amount21	1
ISTD Amount22	1
ISTD Amount23	1
ISTD Amount24	1
ISTD Amount25	1
ISTD Amount26	1
ISTD Amount27	1
ISTD Amount28	1
ISTD Amount29	1
ISTD Amount30	1
ISTD Amount31	1
ISTD Amount32	1
Sample Amount	1
Dilution Factor	1
Vial#	14
Injection Volume	1
Injection Count	1
Bar Code	

[Original Files]
Data File	C:\Users\User\Desktop\GC Analyses\Jack\Nachusa Grasslands Sampling\T3 Timepoint July 12th\T3_07122022_015.gcd
Method File	C:\LabSolutions\Data\GHG_4min_2022\ghg3_togas_w_acet_4 min_new_int.gcm
Batch File	C:\LabSolutions\Data\AutoSamplerTesting\T3_07122022.gcb
Report Format File	c:\LabSolutions\System\DEFAULT.lsr

[File Description]


[Configuration]
Instrument Name	C0B7VH3-Instrument1
Instrument #	1
Line #	1
# of Detectors	3
Detector ID	DET#1	DET#2	DET#3
Detector Name	FID	PTCD	ECD
# of Channels	1	1	1

[Peak Table(Ch1)]
# of Peaks	3
Peak#	R.Time	I.Time	F.Time	Area	Height	A/H	Conc.	Mark	ID#	Name	k'	Plate #	Plate Ht.	Tailing	Resolution	Sep.Factor	Area Ratio	Height Ratio	Conc. %	Norm Conc.
1	1.476	1.402	1.531	24115	11696	2.062	170.250	   	1	CO	0.000	9630	15.576	1.181	0.000	0.000	0	0	20.290	20.290
2	1.571	1.538	1.633	4035	2043	1.975	78.019	   	2	CH4	0.065	11605	12.926	1.173	1.609	0.000	0	0	9.298	9.298
3	1.996	1.949	2.367	2354028	1132173	2.079	590.797	   	3	CO2	0.353	17537	8.553	1.336	7.171	5.462	0	0	70.411	70.411

[Peak Table(Ch2)]
# of Peaks	0

[Peak Table(Ch3)]
# of Peaks	6
Peak#	R.Time	I.Time	F.Time	Area	Height	A/H	Conc.	Mark	ID#	Name	k'	Plate #	Plate Ht.	Tailing	Resolution	Sep.Factor	Area Ratio	Height Ratio	Conc. %	Norm Conc.
1	2.462	2.337	2.506	1442	477	3.026	0.000	   			0.000	11023	13.608	0.000	0.000	0.000	0	0	0.000	0.000
2	2.524	2.506	2.579	821	269	3.051	0.000	 V 			0.025	6053	24.781	0.000	0.558	0.000	0	0	0.000	0.000
3	2.605	2.579	2.667	433	138	3.130	0.000	 V 			0.058	3886	38.598	0.000	0.543	2.294	0	0	0.000	0.000
4	2.880	2.693	3.085	18949	4789	3.956	0.484	S  	1	N2O	0.170	13187	11.375	1.536	2.056	2.923	0	0	100.000	100.000
5	3.074	3.067	3.082	11	20	0.549	0.000	T  			0.249	452388	0.332	1.008	3.277	1.465	0	0	0.000	0.000
6	3.313	3.089	3.995	22166	726	30.546	0.000	   	2	SF6	0.346	254	590.948	1.956	0.561	1.389	0	0	0.000	0.000

[Compound Results(Ch1)]
# of IDs	6
ID#	Name	R.Time	Area	Height	Conc.	Curve	3rd	2nd	1st	Constant	Area Ratio	Height Ratio	Conc. %	Norm Conc.
1	CO	1.476	24115	11696	170.250	Linear	0.000000e+00	0.000000e+00	1.416423e+002	0.000000e+00	0	0	20.290	20.290
2	CH4	1.571	4035	2043	78.019	Linear	0.000000e+00	0.000000e+00	5.171738e+001	0.000000e+00	0	0	9.298	9.298
3	CO2	1.996	2354028	1132173	590.797	Linear	0.000000e+00	0.000000e+00	3.984494e+003	0.000000e+00	0	0	70.411	70.411
4	Ethylene	0.000	0	0	0.000	Linear	0.000000e+00	0.000000e+00	0.000000e+00	0.000000e+00	0	0	0.000	0.000
5	Acetylene	0.000	0	0	0.000	Linear	0.000000e+00	0.000000e+00	0.000000e+00	0.000000e+00	0	0	0.000	0.000
6	Ethane	0.000	0	0	0.000	Linear	0.000000e+00	0.000000e+00	0.000000e+00	0.000000e+00	0	0	0.000	0.000

[Compound Results(Ch2)]
# of IDs	5
ID#	Name	R.Time	Area	Height	Conc.	Curve	3rd	2nd	1st	Constant	Area Ratio	Height Ratio	Conc. %	Norm Conc.
1	Hydrogen	0.000	0	0	0.000	Linear	0.000000e+00	0.000000e+00	0.000000e+00	0.000000e+00	0	0	0.000	0.000
2	Oxygen	0.000	0	0	0.000	Linear	0.000000e+00	0.000000e+00	0.000000e+00	0.000000e+00	0	0	0.000	0.000
3	Nitrogen	0.000	0	0	0.000	Linear	0.000000e+00	0.000000e+00	0.000000e+00	0.000000e+00	0	0	0.000	0.000
4	Methane	0.000	0	0	0.000	Linear	0.000000e+00	0.000000e+00	0.000000e+00	0.000000e+00	0	0	0.000	0.000
5	Carbon Monoxide	0.000	0	0	0.000	Linear	0.000000e+00	0.000000e+00	0.000000e+00	0.000000e+00	0	0	0.000	0.000

[Compound Results(Ch3)]
# of IDs	2
ID#	Name	R.Time	Area	Height	Conc.	Curve	3rd	2nd	1st	Constant	Area Ratio	Height Ratio	Conc. %	Norm Conc.
1	N2O	2.880	18949	4789	0.484	Linear	0.000000e+00	0.000000e+00	3.915173e+004	0.000000e+00	0	0	100.000	100.000
2	SF6	3.313	22166	726	0.000	Linear	0.000000e+00	0.000000e+00	0.000000e+00	0.000000e+00	0	0	0.000	0.000

[Group Results(Ch1)]
# of Groups	0

[Group Results(Ch2)]
# of Groups	0

[Group Results(Ch3)]
# of Groups	0

[Chromatogram (Ch1)]
Interval(msec)	220
# of Points	1091
Start Time(min)	0.002
End Time(min)	3.998
R.Time (min)	Intensity
0.00167	30
0.00533	29
0.00900	29
0.01267	28
0.01633	29
0.02000	35
0.02367	42
0.02733	50
0.03100	55
0.03467	57
0.03833	56
0.04200	52
0.04567	47
0.04933	45
0.05300	42
0.05667	40
0.06033	34
0.06400	26
0.06767	20
0.07133	18
0.07500	19
0.07867	17
0.08233	15
0.08600	14
0.08967	14
0.09333	17
0.09700	19
0.10067	18
0.10433	24
0.10800	31
0.11167	35
0.11533	39
0.11900	43
0.12267	49
0.12633	50
0.13000	49
0.13367	50
0.13733	47
0.14100	40
0.14467	32
0.14833	28
0.15200	25
0.15567	24
0.15933	31
0.16300	44
0.16667	54
0.17033	60
0.17400	65
0.17767	62
0.18133	62
0.18500	69
0.18867	70
0.19233	65
0.19600	70
0.19967	79
0.20333	84
0.20700	86
0.21067	89
0.21433	91
0.21800	92
0.22167	93
0.22533	89
0.22900	85
0.23267	80
0.23633	78
0.24000	81
0.24367	88
0.24733	95
0.25100	97
0.25467	95
0.25833	87
0.26200	75
0.26567	65
0.26933	55
0.27300	52
0.27667	53
0.28033	55
0.28400	57
0.28767	57
0.29133	56
0.29500	54
0.29867	52
0.30233	49
0.30600	46
0.30967	42
0.31333	43
0.31700	45
0.32067	46
0.32433	47
0.32800	46
0.33167	45
0.33533	45
0.33900	44
0.34267	41
0.34633	36
0.35000	31
0.35367	27
0.35733	27
0.36100	31
0.36467	38
0.36833	41
0.37200	36
0.37567	33
0.37933	30
0.38300	31
0.38667	25
0.39033	18
0.39400	16
0.39767	17
0.40133	20
0.40500	31
0.40867	38
0.41233	41
0.41600	39
0.41967	34
0.42333	32
0.42700	31
0.43067	30
0.43433	31
0.43800	36
0.44167	41
0.44533	39
0.44900	34
0.45267	31
0.45633	28
0.46000	31
0.46367	34
0.46733	32
0.47100	24
0.47467	17
0.47833	12
0.48200	10
0.48567	14
0.48933	24
0.49300	32
0.49667	38
0.50033	41
0.50400	44
0.50767	47
0.51133	43
0.51500	35
0.51867	28
0.52233	23
0.52600	22
0.52967	22
0.53333	26
0.53700	31
0.54067	32
0.54433	29
0.54800	23
0.55167	17
0.55533	14
0.55900	12
0.56267	7
0.56633	3
0.57000	4
0.57367	9
0.57733	17
0.58100	21
0.58467	16
0.58833	9
0.59200	4
0.59567	3
0.59933	10
0.60300	21
0.60667	30
0.61033	39
0.61400	46
0.61767	51
0.62133	52
0.62500	47
0.62867	34
0.63233	23
0.63600	17
0.63967	16
0.64333	19
0.64700	20
0.65067	22
0.65433	28
0.65800	37
0.66167	45
0.66533	48
0.66900	44
0.67267	37
0.67633	31
0.68000	24
0.68367	17
0.68733	16
0.69100	20
0.69467	23
0.69833	24
0.70200	27
0.70567	28
0.70933	21
0.71300	9
0.71667	1
0.72033	-1
0.72400	2
0.72767	6
0.73133	9
0.73500	17
0.73867	23
0.74233	29
0.74600	31
0.74967	27
0.75333	18
0.75700	14
0.76067	13
0.76433	6
0.76800	-2
0.77167	-5
0.77533	-2
0.77900	6
0.78267	15
0.78633	20
0.79000	26
0.79367	34
0.79733	36
0.80100	37
0.80467	34
0.80833	21
0.81200	10
0.81567	2
0.81933	-6
0.82300	-9
0.82667	-4
0.83033	4
0.83400	8
0.83767	11
0.84133	9
0.84500	6
0.84867	5
0.85233	5
0.85600	6
0.85967	5
0.86333	4
0.86700	11
0.87067	14
0.87433	12
0.87800	13
0.88167	12
0.88533	9
0.88900	5
0.89267	1
0.89633	-1
0.90000	-2
0.90367	-1
0.90733	1
0.91100	5
0.91467	11
0.91833	16
0.92200	21
0.92567	33
0.92933	43
0.93300	48
0.93667	44
0.94033	31
0.94400	16
0.94767	7
0.95133	3
0.95500	3
0.95867	2
0.96233	2
0.96600	3
0.96967	6
0.97333	10
0.97700	12
0.98067	7
0.98433	-3
0.98800	-10
0.99167	-10
0.99533	-8
0.99900	-8
1.00267	1
1.00633	11
1.01000	12
1.01367	11
1.01733	12
1.02100	14
1.02467	14
1.02833	11
1.03200	7
1.03567	1
1.03933	-4
1.04300	-7
1.04667	-5
1.05033	-2
1.05400	2
1.05767	6
1.06133	8
1.06500	6
1.06867	3
1.07233	-0
1.07600	-4
1.07967	-9
1.08333	-10
1.08700	-10
1.09067	-15
1.09433	-21
1.09800	-21
1.10167	-23
1.10533	-30
1.10900	-31
1.11267	-24
1.11633	-13
1.12000	-2
1.12367	4
1.12733	5
1.13100	4
1.13467	2
1.13833	4
1.14200	4
1.14567	-1
1.14933	-5
1.15300	-4
1.15667	4
1.16033	11
1.16400	12
1.16767	10
1.17133	5
1.17500	-2
1.17867	-8
1.18233	-6
1.18600	3
1.18967	17
1.19333	28
1.19700	32
1.20067	26
1.20433	16
1.20800	5
1.21167	-3
1.21533	-2
1.21900	2
1.22267	8
1.22633	15
1.23000	19
1.23367	17
1.23733	9
1.24100	-1
1.24467	-9
1.24833	-15
1.25200	-16
1.25567	-13
1.25933	-6
1.26300	3
1.26667	10
1.27033	13
1.27400	13
1.27767	12
1.28133	13
1.28500	17
1.28867	18
1.29233	16
1.29600	15
1.29967	16
1.30333	14
1.30700	10
1.31067	7
1.31433	6
1.31800	9
1.32167	13
1.32533	21
1.32900	29
1.33267	30
1.33633	24
1.34000	19
1.34367	16
1.34733	16
1.35100	11
1.35467	7
1.35833	2
1.36200	-1
1.36567	4
1.36933	14
1.37300	25
1.37667	31
1.38033	32
1.38400	28
1.38767	19
1.39133	7
1.39500	-2
1.39867	-7
1.40233	-10
1.40600	-9
1.40967	-6
1.41333	-2
1.41700	-0
1.42067	2
1.42433	2
1.42800	-0
1.43167	-2
1.43533	-0
1.43900	11
1.44267	60
1.44633	258
1.45000	814
1.45367	1945
1.45733	3760
1.46100	5974
1.46467	8102
1.46833	9816
1.47200	10984
1.47567	11519
1.47933	11316
1.48300	10351
1.48667	8795
1.49033	6959
1.49400	5166
1.49767	3623
1.50133	2409
1.50500	1512
1.50867	875
1.51233	432
1.51600	133
1.51967	-62
1.52333	-183
1.52700	-257
1.53067	-302
1.53433	-329
1.53800	-333
1.54167	-290
1.54533	-148
1.54900	129
1.55267	513
1.55633	923
1.56000	1285
1.56367	1562
1.56733	1733
1.57100	1769
1.57467	1656
1.57833	1406
1.58200	1081
1.58567	755
1.58933	478
1.59300	268
1.59667	119
1.60033	15
1.60400	-56
1.60767	-101
1.61133	-130
1.61500	-150
1.61867	-160
1.62233	-163
1.62600	-164
1.62967	-163
1.63333	-160
1.63700	-162
1.64067	-163
1.64433	-162
1.64800	-158
1.65167	-157
1.65533	-158
1.65900	-163
1.66267	-166
1.66633	-165
1.67000	-163
1.67367	-159
1.67733	-153
1.68100	-145
1.68467	-138
1.68833	-130
1.69200	-126
1.69567	-129
1.69933	-134
1.70300	-137
1.70667	-141
1.71033	-146
1.71400	-148
1.71767	-147
1.72133	-142
1.72500	-135
1.72867	-132
1.73233	-136
1.73600	-141
1.73967	-144
1.74333	-143
1.74700	-142
1.75067	-138
1.75433	-131
1.75800	-120
1.76167	-109
1.76533	-104
1.76900	-103
1.77267	-105
1.77633	-101
1.78000	-101
1.78367	-102
1.78733	-99
1.79100	-97
1.79467	-97
1.79833	-102
1.80200	-110
1.80567	-119
1.80933	-125
1.81300	-128
1.81667	-127
1.82033	-121
1.82400	-118
1.82767	-124
1.83133	-134
1.83500	-139
1.83867	-137
1.84233	-133
1.84600	-136
1.84967	-140
1.85333	-140
1.85700	-137
1.86067	-130
1.86433	-125
1.86800	-124
1.87167	-126
1.87533	-127
1.87900	-128
1.88267	-126
1.88633	-120
1.89000	-113
1.89367	-110
1.89733	-104
1.90100	-98
1.90467	-95
1.90833	-94
1.91200	-95
1.91567	-101
1.91933	-106
1.92300	-104
1.92667	-104
1.93033	-105
1.93400	-108
1.93767	-113
1.94133	-118
1.94500	-126
1.94867	-127
1.95233	-109
1.95600	2
1.95967	665
1.96333	3980
1.96700	16636
1.97067	53517
1.97433	136193
1.97800	279841
1.98167	477184
1.98533	697311
1.98900	900256
1.99267	1052346
1.99633	1132079
2.00000	1130582
2.00367	1052905
2.00733	917602
2.01100	752013
2.01467	583841
2.01833	433453
2.02200	310941
2.02567	217734
2.02933	150224
2.03300	102978
2.03667	70659
2.04033	48852
2.04400	34234
2.04767	24439
2.05133	17843
2.05500	13359
2.05867	10270
2.06233	8104
2.06600	6550
2.06967	5408
2.07333	4548
2.07700	3885
2.08067	3366
2.08433	2954
2.08800	2621
2.09167	2347
2.09533	2117
2.09900	1922
2.10267	1758
2.10633	1617
2.11000	1497
2.11367	1394
2.11733	1306
2.12100	1224
2.12467	1146
2.12833	1078
2.13200	1017
2.13567	966
2.13933	927
2.14300	895
2.14667	858
2.15033	815
2.15400	769
2.15767	727
2.16133	691
2.16500	660
2.16867	634
2.17233	611
2.17600	586
2.17967	556
2.18333	525
2.18700	497
2.19067	474
2.19433	460
2.19800	449
2.20167	437
2.20533	426
2.20900	412
2.21267	395
2.21633	377
2.22000	366
2.22367	358
2.22733	355
2.23100	351
2.23467	345
2.23833	334
2.24200	320
2.24567	305
2.24933	296
2.25300	293
2.25667	293
2.26033	293
2.26400	293
2.26767	293
2.27133	294
2.27500	293
2.27867	286
2.28233	276
2.28600	266
2.28967	259
2.29333	250
2.29700	234
2.30067	219
2.30433	205
2.30800	198
2.31167	199
2.31533	207
2.31900	212
2.32267	209
2.32633	201
2.33000	201
2.33367	204
2.33733	204
2.34100	199
2.34467	193
2.34833	186
2.35200	181
2.35567	174
2.35933	169
2.36300	166
2.36667	160
2.37033	154
2.37400	146
2.37767	142
2.38133	140
2.38500	142
2.38867	146
2.39233	152
2.39600	159
2.39967	170
2.40333	182
2.40700	190
2.41067	189
2.41433	181
2.41800	172
2.42167	168
2.42533	164
2.42900	155
2.43267	143
2.43633	134
2.44000	128
2.44367	120
2.44733	113
2.45100	109
2.45467	110
2.45833	114
2.46200	120
2.46567	128
2.46933	124
2.47300	126
2.47667	129
2.48033	130
2.48400	127
2.48767	120
2.49133	118
2.49500	119
2.49867	119
2.50233	117
2.50600	115
2.50967	119
2.51333	124
2.51700	128
2.52067	130
2.52433	128
2.52800	127
2.53167	132
2.53533	139
2.53900	142
2.54267	138
2.54633	128
2.55000	123
2.55367	121
2.55733	117
2.56100	107
2.56467	101
2.56833	97
2.57200	96
2.57567	97
2.57933	99
2.58300	107
2.58667	119
2.59033	124
2.59400	122
2.59767	116
2.60133	115
2.60500	122
2.60867	131
2.61233	135
2.61600	135
2.61967	132
2.62333	127
2.62700	122
2.63067	119
2.63433	121
2.63800	120
2.64167	116
2.64533	111
2.64900	105
2.65267	107
2.65633	114
2.66000	117
2.66367	119
2.66733	120
2.67100	118
2.67467	111
2.67833	106
2.68200	105
2.68567	108
2.68933	111
2.69300	115
2.69667	117
2.70033	119
2.70400	122
2.70767	124
2.71133	124
2.71500	122
2.71867	119
2.72233	113
2.72600	105
2.72967	99
2.73333	99
2.73700	103
2.74067	107
2.74433	111
2.74800	119
2.75167	126
2.75533	127
2.75900	120
2.76267	113
2.76633	106
2.77000	104
2.77367	107
2.77733	111
2.78100	117
2.78467	120
2.78833	122
2.79200	123
2.79567	122
2.79933	124
2.80300	129
2.80667	136
2.81033	144
2.81400	150
2.81767	151
2.82133	144
2.82500	125
2.82867	108
2.83233	98
2.83600	95
2.83967	97
2.84333	98
2.84700	98
2.85067	99
2.85433	103
2.85800	104
2.86167	109
2.86533	116
2.86900	122
2.87267	125
2.87633	130
2.88000	134
2.88367	134
2.88733	134
2.89100	132
2.89467	131
2.89833	126
2.90200	119
2.90567	114
2.90933	111
2.91300	108
2.91667	106
2.92033	105
2.92400	102
2.92767	98
2.93133	93
2.93500	92
2.93867	100
2.94233	111
2.94600	127
2.94967	141
2.95333	150
2.95700	153
2.96067	149
2.96433	140
2.96800	132
2.97167	125
2.97533	118
2.97900	111
2.98267	109
2.98633	111
2.99000	115
2.99367	118
2.99733	118
3.00100	123
3.00467	128
3.00833	131
3.01200	133
3.01567	136
3.01933	141
3.02300	149
3.02667	152
3.03033	150
3.03400	146
3.03767	139
3.04133	137
3.04500	133
3.04867	129
3.05233	131
3.05600	132
3.05967	132
3.06333	133
3.06700	130
3.07067	127
3.07433	125
3.07800	124
3.08167	123
3.08533	127
3.08900	129
3.09267	131
3.09633	129
3.10000	126
3.10367	127
3.10733	132
3.11100	138
3.11467	143
3.11833	143
3.12200	138
3.12567	129
3.12933	120
3.13300	116
3.13667	116
3.14033	118
3.14400	123
3.14767	128
3.15133	129
3.15500	122
3.15867	112
3.16233	107
3.16600	108
3.16967	115
3.17333	118
3.17700	113
3.18067	106
3.18433	105
3.18800	108
3.19167	112
3.19533	118
3.19900	124
3.20267	126
3.20633	130
3.21000	135
3.21367	141
3.21733	143
3.22100	138
3.22467	127
3.22833	113
3.23200	107
3.23567	106
3.23933	106
3.24300	106
3.24667	103
3.25033	105
3.25400	111
3.25767	117
3.26133	120
3.26500	125
3.26867	130
3.27233	132
3.27600	128
3.27967	118
3.28333	107
3.28700	102
3.29067	99
3.29433	94
3.29800	92
3.30167	93
3.30533	98
3.30900	104
3.31267	113
3.31633	121
3.32000	125
3.32367	125
3.32733	126
3.33100	125
3.33467	119
3.33833	116
3.34200	117
3.34567	116
3.34933	111
3.35300	106
3.35667	104
3.36033	101
3.36400	97
3.36767	93
3.37133	89
3.37500	87
3.37867	88
3.38233	90
3.38600	93
3.38967	96
3.39333	101
3.39700	106
3.40067	110
3.40433	111
3.40800	110
3.41167	107
3.41533	104
3.41900	104
3.42267	103
3.42633	100
3.43000	98
3.43367	95
3.43733	93
3.44100	92
3.44467	92
3.44833	93
3.45200	95
3.45567	97
3.45933	100
3.46300	105
3.46667	108
3.47033	110
3.47400	108
3.47767	108
3.48133	108
3.48500	103
3.48867	97
3.49233	94
3.49600	94
3.49967	99
3.50333	104
3.50700	107
3.51067	107
3.51433	104
3.51800	100
3.52167	94
3.52533	90
3.52900	87
3.53267	81
3.53633	78
3.54000	78
3.54367	78
3.54733	80
3.55100	87
3.55467	94
3.55833	100
3.56200	103
3.56567	104
3.56933	109
3.57300	116
3.57667	121
3.58033	126
3.58400	132
3.58767	132
3.59133	127
3.59500	118
3.59867	104
3.60233	86
3.60600	67
3.60967	55
3.61333	51
3.61700	50
3.62067	51
3.62433	54
3.62800	62
3.63167	71
3.63533	76
3.63900	79
3.64267	79
3.64633	80
3.65000	79
3.65367	77
3.65733	80
3.66100	88
3.66467	95
3.66833	98
3.67200	95
3.67567	89
3.67933	83
3.68300	78
3.68667	77
3.69033	78
3.69400	81
3.69767	83
3.70133	86
3.70500	89
3.70867	91
3.71233	91
3.71600	87
3.71967	81
3.72333	81
3.72700	85
3.73067	91
3.73433	96
3.73800	99
3.74167	100
3.74533	98
3.74900	95
3.75267	91
3.75633	91
3.76000	90
3.76367	88
3.76733	87
3.77100	91
3.77467	97
3.77833	100
3.78200	102
3.78567	101
3.78933	99
3.79300	95
3.79667	87
3.80033	79
3.80400	74
3.80767	73
3.81133	73
3.81500	77
3.81867	81
3.82233	83
3.82600	80
3.82967	73
3.83333	65
3.83700	59
3.84067	58
3.84433	60
3.84800	67
3.85167	71
3.85533	73
3.85900	74
3.86267	73
3.86633	72
3.87000	68
3.87367	66
3.87733	65
3.88100	70
3.88467	77
3.88833	82
3.89200	84
3.89567	81
3.89933	75
3.90300	74
3.90667	78
3.91033	83
3.91400	83
3.91767	82
3.92133	81
3.92500	80
3.92867	80
3.93233	82
3.93600	88
3.93967	96
3.94333	102
3.94700	100
3.95067	94
3.95433	81
3.95800	68
3.96167	60
3.96533	53
3.96900	50
3.97267	51
3.97633	58
3.98000	72
3.98367	82
3.98733	88
3.99100	90
3.99467	90
3.99833	92

[Chromatogram (Ch2)]
Interval(msec)	220
# of Points	1091
Start Time(min)	0.002
End Time(min)	3.998
R.Time (min)	Intensity
0.00167	-0
0.00533	-0
0.00900	-0
0.01267	0
0.01633	0
0.02000	0
0.02367	1
0.02733	1
0.03100	1
0.03467	1
0.03833	1
0.04200	2
0.04567	2
0.04933	2
0.05300	2
0.05667	2
0.06033	2
0.06400	3
0.06767	3
0.07133	3
0.07500	3
0.07867	3
0.08233	4
0.08600	4
0.08967	4
0.09333	4
0.09700	4
0.10067	4
0.10433	4
0.10800	4
0.11167	4
0.11533	3
0.11900	3
0.12267	3
0.12633	3
0.13000	3
0.13367	3
0.13733	3
0.14100	2
0.14467	2
0.14833	2
0.15200	2
0.15567	1
0.15933	1
0.16300	1
0.16667	1
0.17033	1
0.17400	0
0.17767	0
0.18133	0
0.18500	0
0.18867	0
0.19233	0
0.19600	-0
0.19967	-0
0.20333	-1
0.20700	-1
0.21067	-1
0.21433	-1
0.21800	-1
0.22167	-1
0.22533	-1
0.22900	-2
0.23267	-2
0.23633	-2
0.24000	-2
0.24367	-3
0.24733	-2
0.25100	-2
0.25467	-2
0.25833	-2
0.26200	-1
0.26567	-1
0.26933	-1
0.27300	-0
0.27667	0
0.28033	0
0.28400	0
0.28767	0
0.29133	0
0.29500	0
0.29867	0
0.30233	-0
0.30600	-0
0.30967	-0
0.31333	-1
0.31700	-1
0.32067	-1
0.32433	-1
0.32800	-2
0.33167	-2
0.33533	-2
0.33900	-2
0.34267	-2
0.34633	-2
0.35000	-2
0.35367	-2
0.35733	-2
0.36100	-2
0.36467	-2
0.36833	-1
0.37200	-1
0.37567	-1
0.37933	-1
0.38300	-1
0.38667	-1
0.39033	-2
0.39400	-2
0.39767	-2
0.40133	-2
0.40500	-2
0.40867	-2
0.41233	-2
0.41600	-2
0.41967	-1
0.42333	-2
0.42700	-2
0.43067	-2
0.43433	-2
0.43800	-2
0.44167	-2
0.44533	-2
0.44900	-3
0.45267	-3
0.45633	-3
0.46000	-3
0.46367	-3
0.46733	-3
0.47100	-3
0.47467	-3
0.47833	-3
0.48200	-3
0.48567	-3
0.48933	-3
0.49300	-3
0.49667	-3
0.50033	-3
0.50400	-3
0.50767	-2
0.51133	-2
0.51500	-2
0.51867	-2
0.52233	-2
0.52600	-1
0.52967	-1
0.53333	-1
0.53700	-1
0.54067	-1
0.54433	-1
0.54800	-1
0.55167	-1
0.55533	-1
0.55900	-1
0.56267	-1
0.56633	-1
0.57000	-1
0.57367	-1
0.57733	-1
0.58100	-1
0.58467	-1
0.58833	-1
0.59200	-1
0.59567	-1
0.59933	-1
0.60300	-1
0.60667	-1
0.61033	-1
0.61400	-1
0.61767	-1
0.62133	-0
0.62500	-1
0.62867	-1
0.63233	-1
0.63600	-1
0.63967	-1
0.64333	-2
0.64700	-2
0.65067	-2
0.65433	-2
0.65800	-2
0.66167	-2
0.66533	-2
0.66900	-2
0.67267	-2
0.67633	-2
0.68000	-2
0.68367	-3
0.68733	-3
0.69100	-3
0.69467	-3
0.69833	-3
0.70200	-3
0.70567	-2
0.70933	-2
0.71300	-2
0.71667	-2
0.72033	-2
0.72400	-2
0.72767	-2
0.73133	-2
0.73500	-2
0.73867	-2
0.74233	-2
0.74600	-2
0.74967	-3
0.75333	-3
0.75700	-3
0.76067	-3
0.76433	-3
0.76800	-3
0.77167	-2
0.77533	-2
0.77900	-2
0.78267	-2
0.78633	-2
0.79000	-2
0.79367	-1
0.79733	-1
0.80100	-1
0.80467	-2
0.80833	-2
0.81200	-2
0.81567	-2
0.81933	-2
0.82300	-2
0.82667	-2
0.83033	-2
0.83400	-2
0.83767	-2
0.84133	-2
0.84500	-2
0.84867	-2
0.85233	-2
0.85600	-2
0.85967	-2
0.86333	-2
0.86700	-2
0.87067	-2
0.87433	-2
0.87800	-2
0.88167	-2
0.88533	-2
0.88900	-2
0.89267	-2
0.89633	-2
0.90000	-2
0.90367	-2
0.90733	-1
0.91100	-1
0.91467	-1
0.91833	-1
0.92200	-1
0.92567	-2
0.92933	-2
0.93300	-2
0.93667	-2
0.94033	-2
0.94400	-2
0.94767	-2
0.95133	-2
0.95500	-2
0.95867	-2
0.96233	-2
0.96600	-1
0.96967	-1
0.97333	-1
0.97700	-1
0.98067	-1
0.98433	-1
0.98800	-1
0.99167	-1
0.99533	-1
0.99900	-0
1.00267	-0
1.00633	0
1.01000	0
1.01367	0
1.01733	-0
1.02100	-0
1.02467	-0
1.02833	-1
1.03200	-1
1.03567	-1
1.03933	-1
1.04300	-1
1.04667	-1
1.05033	-1
1.05400	-1
1.05767	-1
1.06133	-1
1.06500	-1
1.06867	-1
1.07233	-1
1.07600	-1
1.07967	-1
1.08333	-2
1.08700	-2
1.09067	-2
1.09433	-2
1.09800	-2
1.10167	-2
1.10533	-2
1.10900	-2
1.11267	-3
1.11633	-3
1.12000	-3
1.12367	-3
1.12733	-3
1.13100	-3
1.13467	-3
1.13833	-3
1.14200	-3
1.14567	-2
1.14933	-2
1.15300	-2
1.15667	-2
1.16033	-1
1.16400	-1
1.16767	-1
1.17133	-1
1.17500	-1
1.17867	-1
1.18233	-1
1.18600	-1
1.18967	-2
1.19333	-2
1.19700	-2
1.20067	-2
1.20433	-1
1.20800	-1
1.21167	-1
1.21533	-1
1.21900	-2
1.22267	-2
1.22633	-2
1.23000	-3
1.23367	-3
1.23733	-3
1.24100	-4
1.24467	-4
1.24833	-4
1.25200	-5
1.25567	-5
1.25933	-5
1.26300	-5
1.26667	-5
1.27033	-5
1.27400	-5
1.27767	-6
1.28133	-6
1.28500	-6
1.28867	-6
1.29233	-6
1.29600	-5
1.29967	-5
1.30333	-4
1.30700	-4
1.31067	-4
1.31433	-3
1.31800	-3
1.32167	-3
1.32533	-3
1.32900	-2
1.33267	-2
1.33633	-2
1.34000	-2
1.34367	-2
1.34733	-2
1.35100	-2
1.35467	-3
1.35833	-3
1.36200	-3
1.36567	-3
1.36933	-3
1.37300	-3
1.37667	-3
1.38033	-3
1.38400	-3
1.38767	-3
1.39133	-3
1.39500	-3
1.39867	-3
1.40233	-3
1.40600	-4
1.40967	-4
1.41333	-5
1.41700	-5
1.42067	-5
1.42433	-5
1.42800	-5
1.43167	-5
1.43533	-5
1.43900	-5
1.44267	-5
1.44633	-5
1.45000	-4
1.45367	-4
1.45733	-4
1.46100	-4
1.46467	-3
1.46833	-3
1.47200	-3
1.47567	-4
1.47933	-4
1.48300	-4
1.48667	-4
1.49033	-4
1.49400	-4
1.49767	-4
1.50133	-4
1.50500	-3
1.50867	-3
1.51233	-3
1.51600	-3
1.51967	-4
1.52333	-4
1.52700	-4
1.53067	-4
1.53433	-4
1.53800	-4
1.54167	-5
1.54533	-5
1.54900	-5
1.55267	-5
1.55633	-5
1.56000	-5
1.56367	-5
1.56733	-5
1.57100	-5
1.57467	-4
1.57833	-4
1.58200	-4
1.58567	-4
1.58933	-4
1.59300	-5
1.59667	-5
1.60033	-6
1.60400	-7
1.60767	-8
1.61133	-9
1.61500	-11
1.61867	-13
1.62233	-16
1.62600	-19
1.62967	-22
1.63333	-25
1.63700	-29
1.64067	-32
1.64433	-36
1.64800	-39
1.65167	-43
1.65533	-46
1.65900	-50
1.66267	-53
1.66633	-58
1.67000	-62
1.67367	-67
1.67733	-73
1.68100	-78
1.68467	-83
1.68833	-88
1.69200	-92
1.69567	-96
1.69933	-99
1.70300	-102
1.70667	-104
1.71033	-105
1.71400	-106
1.71767	-107
1.72133	-108
1.72500	-108
1.72867	-107
1.73233	-107
1.73600	-107
1.73967	-107
1.74333	-106
1.74700	-106
1.75067	-106
1.75433	-107
1.75800	-108
1.76167	-109
1.76533	-110
1.76900	-111
1.77267	-112
1.77633	-113
1.78000	-114
1.78367	-115
1.78733	-116
1.79100	-117
1.79467	-118
1.79833	-118
1.80200	-118
1.80567	-118
1.80933	-117
1.81300	-117
1.81667	-116
1.82033	-115
1.82400	-114
1.82767	-113
1.83133	-112
1.83500	-112
1.83867	-112
1.84233	-112
1.84600	-113
1.84967	-114
1.85333	-114
1.85700	-115
1.86067	-115
1.86433	-115
1.86800	-114
1.87167	-115
1.87533	-115
1.87900	-115
1.88267	-115
1.88633	-114
1.89000	-114
1.89367	-114
1.89733	-114
1.90100	-113
1.90467	-112
1.90833	-112
1.91200	-112
1.91567	-112
1.91933	-112
1.92300	-112
1.92667	-112
1.93033	-112
1.93400	-112
1.93767	-112
1.94133	-112
1.94500	-111
1.94867	-111
1.95233	-111
1.95600	-111
1.95967	-112
1.96333	-112
1.96700	-111
1.97067	-111
1.97433	-111
1.97800	-110
1.98167	-110
1.98533	-110
1.98900	-110
1.99267	-109
1.99633	-109
2.00000	-108
2.00367	-108
2.00733	-108
2.01100	-108
2.01467	-108
2.01833	-108
2.02200	-107
2.02567	-107
2.02933	-107
2.03300	-107
2.03667	-107
2.04033	-106
2.04400	-106
2.04767	-105
2.05133	-105
2.05500	-105
2.05867	-105
2.06233	-104
2.06600	-104
2.06967	-104
2.07333	-104
2.07700	-104
2.08067	-104
2.08433	-104
2.08800	-104
2.09167	-103
2.09533	-102
2.09900	-102
2.10267	-101
2.10633	-100
2.11000	-99
2.11367	-99
2.11733	-98
2.12100	-97
2.12467	-97
2.12833	-96
2.13200	-96
2.13567	-95
2.13933	-95
2.14300	-95
2.14667	-95
2.15033	-95
2.15400	-95
2.15767	-96
2.16133	-96
2.16500	-96
2.16867	-96
2.17233	-96
2.17600	-96
2.17967	-96
2.18333	-95
2.18700	-94
2.19067	-93
2.19433	-93
2.19800	-92
2.20167	-92
2.20533	-92
2.20900	-91
2.21267	-91
2.21633	-91
2.22000	-91
2.22367	-91
2.22733	-90
2.23100	-90
2.23467	-90
2.23833	-89
2.24200	-89
2.24567	-89
2.24933	-88
2.25300	-88
2.25667	-88
2.26033	-87
2.26400	-87
2.26767	-86
2.27133	-86
2.27500	-85
2.27867	-85
2.28233	-84
2.28600	-84
2.28967	-84
2.29333	-84
2.29700	-84
2.30067	-84
2.30433	-84
2.30800	-84
2.31167	-84
2.31533	-83
2.31900	-83
2.32267	-82
2.32633	-82
2.33000	-81
2.33367	-81
2.33733	-81
2.34100	-80
2.34467	-80
2.34833	-79
2.35200	-79
2.35567	-78
2.35933	-76
2.36300	-74
2.36667	-72
2.37033	-69
2.37400	-66
2.37767	-63
2.38133	-59
2.38500	-55
2.38867	-50
2.39233	-46
2.39600	-42
2.39967	-37
2.40333	-33
2.40700	-30
2.41067	-26
2.41433	-24
2.41800	-21
2.42167	-19
2.42533	-17
2.42900	-15
2.43267	-14
2.43633	-13
2.44000	-12
2.44367	-11
2.44733	-10
2.45100	-9
2.45467	-8
2.45833	-7
2.46200	-6
2.46567	-5
2.46933	-5
2.47300	-4
2.47667	-3
2.48033	-2
2.48400	-1
2.48767	-0
2.49133	1
2.49500	2
2.49867	3
2.50233	4
2.50600	5
2.50967	5
2.51333	6
2.51700	6
2.52067	7
2.52433	7
2.52800	8
2.53167	9
2.53533	10
2.53900	10
2.54267	11
2.54633	11
2.55000	11
2.55367	11
2.55733	11
2.56100	12
2.56467	12
2.56833	12
2.57200	12
2.57567	12
2.57933	13
2.58300	13
2.58667	13
2.59033	13
2.59400	13
2.59767	13
2.60133	13
2.60500	14
2.60867	14
2.61233	15
2.61600	15
2.61967	15
2.62333	15
2.62700	15
2.63067	14
2.63433	14
2.63800	13
2.64167	13
2.64533	13
2.64900	14
2.65267	14
2.65633	15
2.66000	16
2.66367	17
2.66733	18
2.67100	19
2.67467	20
2.67833	21
2.68200	21
2.68567	21
2.68933	21
2.69300	21
2.69667	21
2.70033	21
2.70400	21
2.70767	21
2.71133	21
2.71500	21
2.71867	22
2.72233	22
2.72600	23
2.72967	23
2.73333	24
2.73700	24
2.74067	25
2.74433	25
2.74800	25
2.75167	25
2.75533	24
2.75900	24
2.76267	24
2.76633	24
2.77000	24
2.77367	23
2.77733	23
2.78100	23
2.78467	23
2.78833	22
2.79200	22
2.79567	22
2.79933	23
2.80300	23
2.80667	23
2.81033	23
2.81400	24
2.81767	24
2.82133	24
2.82500	24
2.82867	24
2.83233	24
2.83600	24
2.83967	24
2.84333	23
2.84700	20
2.85067	16
2.85433	10
2.85800	0
2.86167	-12
2.86533	-29
2.86900	-50
2.87267	-76
2.87633	-105
2.88000	-140
2.88367	-178
2.88733	-220
2.89100	-266
2.89467	-314
2.89833	-365
2.90200	-418
2.90567	-472
2.90933	-527
2.91300	-583
2.91667	-639
2.92033	-694
2.92400	-748
2.92767	-801
2.93133	-852
2.93500	-905
2.93867	-962
2.94233	-1020
2.94600	-1070
2.94967	-1100
2.95333	-1106
2.95700	-1085
2.96067	-1042
2.96433	-981
2.96800	-909
2.97167	-830
2.97533	-749
2.97900	-669
2.98267	-593
2.98633	-521
2.99000	-455
2.99367	-395
2.99733	-342
3.00100	-294
3.00467	-252
3.00833	-216
3.01200	-184
3.01567	-156
3.01933	-132
3.02300	-111
3.02667	-94
3.03033	-78
3.03400	-65
3.03767	-54
3.04133	-45
3.04500	-36
3.04867	-29
3.05233	-23
3.05600	-18
3.05967	-14
3.06333	-10
3.06700	-7
3.07067	-4
3.07433	-2
3.07800	0
3.08167	2
3.08533	4
3.08900	5
3.09267	6
3.09633	7
3.10000	8
3.10367	9
3.10733	9
3.11100	10
3.11467	11
3.11833	12
3.12200	12
3.12567	12
3.12933	13
3.13300	13
3.13667	13
3.14033	13
3.14400	14
3.14767	14
3.15133	14
3.15500	14
3.15867	15
3.16233	15
3.16600	16
3.16967	16
3.17333	16
3.17700	17
3.18067	17
3.18433	17
3.18800	18
3.19167	18
3.19533	18
3.19900	19
3.20267	19
3.20633	19
3.21000	20
3.21367	20
3.21733	20
3.22100	20
3.22467	20
3.22833	20
3.23200	20
3.23567	20
3.23933	20
3.24300	20
3.24667	20
3.25033	20
3.25400	20
3.25767	20
3.26133	20
3.26500	20
3.26867	20
3.27233	20
3.27600	20
3.27967	21
3.28333	21
3.28700	21
3.29067	22
3.29433	22
3.29800	22
3.30167	22
3.30533	22
3.30900	22
3.31267	22
3.31633	22
3.32000	22
3.32367	22
3.32733	22
3.33100	22
3.33467	22
3.33833	22
3.34200	22
3.34567	22
3.34933	22
3.35300	22
3.35667	22
3.36033	22
3.36400	22
3.36767	22
3.37133	22
3.37500	22
3.37867	23
3.38233	23
3.38600	23
3.38967	24
3.39333	24
3.39700	24
3.40067	24
3.40433	25
3.40800	25
3.41167	25
3.41533	25
3.41900	25
3.42267	25
3.42633	25
3.43000	25
3.43367	25
3.43733	25
3.44100	25
3.44467	25
3.44833	25
3.45200	25
3.45567	24
3.45933	24
3.46300	24
3.46667	24
3.47033	24
3.47400	24
3.47767	24
3.48133	24
3.48500	24
3.48867	24
3.49233	24
3.49600	24
3.49967	24
3.50333	24
3.50700	24
3.51067	24
3.51433	24
3.51800	25
3.52167	25
3.52533	25
3.52900	25
3.53267	25
3.53633	25
3.54000	25
3.54367	25
3.54733	25
3.55100	24
3.55467	24
3.55833	24
3.56200	24
3.56567	24
3.56933	23
3.57300	23
3.57667	23
3.58033	23
3.58400	23
3.58767	23
3.59133	23
3.59500	23
3.59867	24
3.60233	24
3.60600	24
3.60967	24
3.61333	24
3.61700	24
3.62067	25
3.62433	25
3.62800	25
3.63167	25
3.63533	25
3.63900	25
3.64267	25
3.64633	25
3.65000	25
3.65367	24
3.65733	24
3.66100	24
3.66467	24
3.66833	24
3.67200	24
3.67567	24
3.67933	24
3.68300	24
3.68667	24
3.69033	24
3.69400	24
3.69767	24
3.70133	24
3.70500	24
3.70867	24
3.71233	24
3.71600	24
3.71967	25
3.72333	25
3.72700	25
3.73067	24
3.73433	24
3.73800	24
3.74167	24
3.74533	24
3.74900	24
3.75267	24
3.75633	24
3.76000	24
3.76367	24
3.76733	24
3.77100	24
3.77467	24
3.77833	24
3.78200	24
3.78567	24
3.78933	23
3.79300	23
3.79667	23
3.80033	23
3.80400	23
3.80767	23
3.81133	23
3.81500	23
3.81867	23
3.82233	23
3.82600	23
3.82967	23
3.83333	23
3.83700	23
3.84067	23
3.84433	23
3.84800	23
3.85167	23
3.85533	23
3.85900	23
3.86267	23
3.86633	23
3.87000	24
3.87367	24
3.87733	24
3.88100	24
3.88467	24
3.88833	25
3.89200	25
3.89567	25
3.89933	25
3.90300	25
3.90667	25
3.91033	25
3.91400	25
3.91767	25
3.92133	25
3.92500	25
3.92867	25
3.93233	25
3.93600	25
3.93967	25
3.94333	25
3.94700	25
3.95067	25
3.95433	25
3.95800	25
3.96167	24
3.96533	25
3.96900	25
3.97267	25
3.97633	25
3.98000	25
3.98367	26
3.98733	26
3.99100	26
3.99467	26
3.99833	27

[Chromatogram (Ch3)]
Interval(msec)	220
# of Points	1091
Start Time(min)	0.002
End Time(min)	3.998
R.Time (min)	Intensity
0.00167	-1
0.00533	-3
0.00900	-4
0.01267	-3
0.01633	-3
0.02000	-3
0.02367	-3
0.02733	-4
0.03100	-4
0.03467	-3
0.03833	-3
0.04200	-2
0.04567	-2
0.04933	-1
0.05300	-2
0.05667	-3
0.06033	-2
0.06400	0
0.06767	0
0.07133	1
0.07500	0
0.07867	-2
0.08233	-2
0.08600	-2
0.08967	-2
0.09333	-0
0.09700	-1
0.10067	0
0.10433	1
0.10800	-0
0.11167	-1
0.11533	-1
0.11900	0
0.12267	3
0.12633	5
0.13000	5
0.13367	3
0.13733	1
0.14100	1
0.14467	-0
0.14833	-1
0.15200	-2
0.15567	-2
0.15933	-2
0.16300	-1
0.16667	-2
0.17033	-4
0.17400	-5
0.17767	-4
0.18133	-3
0.18500	-2
0.18867	-3
0.19233	-4
0.19600	-5
0.19967	-6
0.20333	-4
0.20700	-2
0.21067	-0
0.21433	-0
0.21800	-0
0.22167	-1
0.22533	-0
0.22900	-0
0.23267	-2
0.23633	-3
0.24000	-3
0.24367	-4
0.24733	-6
0.25100	-5
0.25467	-2
0.25833	-1
0.26200	-2
0.26567	-3
0.26933	-3
0.27300	-1
0.27667	1
0.28033	2
0.28400	2
0.28767	3
0.29133	2
0.29500	2
0.29867	1
0.30233	1
0.30600	0
0.30967	1
0.31333	1
0.31700	2
0.32067	3
0.32433	3
0.32800	2
0.33167	1
0.33533	-0
0.33900	-1
0.34267	-2
0.34633	-3
0.35000	-3
0.35367	-2
0.35733	2
0.36100	5
0.36467	5
0.36833	3
0.37200	3
0.37567	4
0.37933	3
0.38300	3
0.38667	2
0.39033	2
0.39400	3
0.39767	4
0.40133	4
0.40500	5
0.40867	6
0.41233	4
0.41600	3
0.41967	1
0.42333	0
0.42700	-0
0.43067	0
0.43433	2
0.43800	1
0.44167	3
0.44533	3
0.44900	2
0.45267	1
0.45633	1
0.46000	2
0.46367	3
0.46733	4
0.47100	3
0.47467	3
0.47833	2
0.48200	0
0.48567	-2
0.48933	-3
0.49300	-2
0.49667	-0
0.50033	2
0.50400	2
0.50767	0
0.51133	-1
0.51500	-2
0.51867	-1
0.52233	-0
0.52600	2
0.52967	4
0.53333	4
0.53700	2
0.54067	1
0.54433	-0
0.54800	0
0.55167	1
0.55533	2
0.55900	5
0.56267	5
0.56633	4
0.57000	6
0.57367	7
0.57733	6
0.58100	6
0.58467	7
0.58833	7
0.59200	6
0.59567	6
0.59933	4
0.60300	4
0.60667	3
0.61033	4
0.61400	2
0.61767	1
0.62133	0
0.62500	2
0.62867	2
0.63233	1
0.63600	2
0.63967	4
0.64333	6
0.64700	7
0.65067	8
0.65433	7
0.65800	8
0.66167	9
0.66533	10
0.66900	9
0.67267	7
0.67633	7
0.68000	6
0.68367	3
0.68733	2
0.69100	4
0.69467	4
0.69833	6
0.70200	6
0.70567	7
0.70933	8
0.71300	9
0.71667	9
0.72033	5
0.72400	3
0.72767	2
0.73133	3
0.73500	3
0.73867	3
0.74233	4
0.74600	7
0.74967	9
0.75333	8
0.75700	9
0.76067	9
0.76433	11
0.76800	11
0.77167	11
0.77533	11
0.77900	12
0.78267	12
0.78633	11
0.79000	12
0.79367	15
0.79733	17
0.80100	17
0.80467	14
0.80833	12
0.81200	11
0.81567	12
0.81933	12
0.82300	12
0.82667	12
0.83033	12
0.83400	13
0.83767	13
0.84133	13
0.84500	12
0.84867	11
0.85233	11
0.85600	10
0.85967	9
0.86333	10
0.86700	11
0.87067	10
0.87433	8
0.87800	9
0.88167	11
0.88533	11
0.88900	10
0.89267	10
0.89633	8
0.90000	8
0.90367	11
0.90733	12
0.91100	12
0.91467	14
0.91833	15
0.92200	16
0.92567	15
0.92933	15
0.93300	13
0.93667	11
0.94033	10
0.94400	9
0.94767	11
0.95133	13
0.95500	14
0.95867	13
0.96233	10
0.96600	9
0.96967	9
0.97333	11
0.97700	14
0.98067	14
0.98433	13
0.98800	14
0.99167	15
0.99533	15
0.99900	16
1.00267	14
1.00633	13
1.01000	10
1.01367	11
1.01733	13
1.02100	14
1.02467	13
1.02833	11
1.03200	12
1.03567	14
1.03933	16
1.04300	15
1.04667	15
1.05033	17
1.05400	16
1.05767	15
1.06133	14
1.06500	14
1.06867	14
1.07233	15
1.07600	15
1.07967	14
1.08333	12
1.08700	11
1.09067	10
1.09433	8
1.09800	9
1.10167	10
1.10533	11
1.10900	12
1.11267	14
1.11633	13
1.12000	12
1.12367	12
1.12733	12
1.13100	11
1.13467	10
1.13833	10
1.14200	11
1.14567	10
1.14933	9
1.15300	11
1.15667	15
1.16033	18
1.16400	19
1.16767	16
1.17133	13
1.17500	12
1.17867	12
1.18233	13
1.18600	16
1.18967	18
1.19333	18
1.19700	18
1.20067	16
1.20433	15
1.20800	17
1.21167	20
1.21533	20
1.21900	19
1.22267	19
1.22633	17
1.23000	17
1.23367	16
1.23733	16
1.24100	18
1.24467	20
1.24833	20
1.25200	21
1.25567	20
1.25933	20
1.26300	21
1.26667	23
1.27033	24
1.27400	23
1.27767	22
1.28133	23
1.28500	22
1.28867	21
1.29233	18
1.29600	17
1.29967	18
1.30333	21
1.30700	24
1.31067	24
1.31433	24
1.31800	23
1.32167	21
1.32533	18
1.32900	16
1.33267	15
1.33633	13
1.34000	14
1.34367	16
1.34733	18
1.35100	19
1.35467	17
1.35833	13
1.36200	12
1.36567	13
1.36933	16
1.37300	17
1.37667	16
1.38033	16
1.38400	15
1.38767	14
1.39133	15
1.39500	18
1.39867	17
1.40233	17
1.40600	18
1.40967	19
1.41333	20
1.41700	21
1.42067	23
1.42433	23
1.42800	22
1.43167	22
1.43533	23
1.43900	22
1.44267	19
1.44633	18
1.45000	17
1.45367	18
1.45733	17
1.46100	16
1.46467	17
1.46833	20
1.47200	19
1.47567	18
1.47933	16
1.48300	13
1.48667	13
1.49033	13
1.49400	14
1.49767	16
1.50133	18
1.50500	21
1.50867	24
1.51233	25
1.51600	25
1.51967	24
1.52333	24
1.52700	24
1.53067	24
1.53433	22
1.53800	21
1.54167	19
1.54533	18
1.54900	18
1.55267	20
1.55633	22
1.56000	22
1.56367	21
1.56733	19
1.57100	20
1.57467	21
1.57833	23
1.58200	22
1.58567	22
1.58933	22
1.59300	22
1.59667	24
1.60033	27
1.60400	29
1.60767	26
1.61133	23
1.61500	20
1.61867	21
1.62233	23
1.62600	23
1.62967	25
1.63333	27
1.63700	27
1.64067	26
1.64433	27
1.64800	28
1.65167	28
1.65533	29
1.65900	29
1.66267	29
1.66633	30
1.67000	30
1.67367	29
1.67733	29
1.68100	31
1.68467	34
1.68833	37
1.69200	39
1.69567	40
1.69933	41
1.70300	40
1.70667	38
1.71033	36
1.71400	37
1.71767	39
1.72133	40
1.72500	40
1.72867	41
1.73233	43
1.73600	44
1.73967	46
1.74333	47
1.74700	46
1.75067	46
1.75433	45
1.75800	48
1.76167	49
1.76533	48
1.76900	47
1.77267	46
1.77633	45
1.78000	44
1.78367	45
1.78733	48
1.79100	51
1.79467	53
1.79833	53
1.80200	51
1.80567	51
1.80933	52
1.81300	54
1.81667	54
1.82033	51
1.82400	49
1.82767	50
1.83133	52
1.83500	55
1.83867	57
1.84233	58
1.84600	58
1.84967	60
1.85333	62
1.85700	63
1.86067	64
1.86433	64
1.86800	62
1.87167	60
1.87533	58
1.87900	59
1.88267	60
1.88633	63
1.89000	65
1.89367	67
1.89733	68
1.90100	68
1.90467	68
1.90833	69
1.91200	71
1.91567	71
1.91933	70
1.92300	68
1.92667	69
1.93033	72
1.93400	73
1.93767	75
1.94133	77
1.94500	79
1.94867	80
1.95233	80
1.95600	81
1.95967	82
1.96333	86
1.96700	89
1.97067	90
1.97433	90
1.97800	87
1.98167	86
1.98533	87
1.98900	88
1.99267	89
1.99633	91
2.00000	93
2.00367	95
2.00733	96
2.01100	96
2.01467	96
2.01833	96
2.02200	97
2.02567	98
2.02933	100
2.03300	100
2.03667	100
2.04033	102
2.04400	104
2.04767	104
2.05133	106
2.05500	108
2.05867	110
2.06233	111
2.06600	114
2.06967	115
2.07333	114
2.07700	114
2.08067	114
2.08433	115
2.08800	117
2.09167	119
2.09533	119
2.09900	119
2.10267	122
2.10633	126
2.11000	128
2.11367	126
2.11733	126
2.12100	125
2.12467	125
2.12833	125
2.13200	125
2.13567	126
2.13933	127
2.14300	130
2.14667	131
2.15033	132
2.15400	134
2.15767	137
2.16133	139
2.16500	140
2.16867	141
2.17233	143
2.17600	145
2.17967	145
2.18333	145
2.18700	144
2.19067	143
2.19433	144
2.19800	145
2.20167	146
2.20533	149
2.20900	152
2.21267	154
2.21633	156
2.22000	155
2.22367	155
2.22733	153
2.23100	152
2.23467	151
2.23833	153
2.24200	155
2.24567	158
2.24933	161
2.25300	166
2.25667	168
2.26033	168
2.26400	167
2.26767	167
2.27133	167
2.27500	168
2.27867	170
2.28233	171
2.28600	172
2.28967	173
2.29333	172
2.29700	171
2.30067	171
2.30433	172
2.30800	173
2.31167	178
2.31533	181
2.31900	182
2.32267	183
2.32633	184
2.33000	184
2.33367	186
2.33733	188
2.34100	190
2.34467	190
2.34833	191
2.35200	193
2.35567	193
2.35933	195
2.36300	196
2.36667	197
2.37033	196
2.37400	196
2.37767	197
2.38133	198
2.38500	198
2.38867	198
2.39233	197
2.39600	196
2.39967	197
2.40333	200
2.40700	203
2.41067	206
2.41433	207
2.41800	206
2.42167	206
2.42533	207
2.42900	207
2.43267	206
2.43633	205
2.44000	208
2.44367	248
2.44733	357
2.45100	478
2.45467	578
2.45833	632
2.46200	636
2.46567	615
2.46933	593
2.47300	580
2.47667	571
2.48033	552
2.48400	521
2.48767	482
2.49133	445
2.49500	415
2.49867	391
2.50233	373
2.50600	365
2.50967	366
2.51333	375
2.51700	388
2.52067	404
2.52433	414
2.52800	413
2.53167	402
2.53533	381
2.53900	358
2.54267	335
2.54633	313
2.55000	294
2.55367	280
2.55733	268
2.56100	259
2.56467	253
2.56833	248
2.57200	246
2.57567	246
2.57933	244
2.58300	245
2.58667	250
2.59033	253
2.59400	257
2.59767	262
2.60133	263
2.60500	264
2.60867	263
2.61233	257
2.61600	248
2.61967	238
2.62333	224
2.62700	209
2.63067	196
2.63433	183
2.63800	170
2.64167	158
2.64533	148
2.64900	138
2.65267	130
2.65633	125
2.66000	120
2.66367	115
2.66733	112
2.67100	110
2.67467	109
2.67833	108
2.68200	109
2.68567	109
2.68933	110
2.69300	112
2.69667	114
2.70033	117
2.70400	120
2.70767	124
2.71133	129
2.71500	132
2.71867	136
2.72233	141
2.72600	144
2.72967	149
2.73333	153
2.73700	157
2.74067	161
2.74433	165
2.74800	168
2.75167	171
2.75533	175
2.75900	177
2.76267	179
2.76633	181
2.77000	183
2.77367	185
2.77733	188
2.78100	192
2.78467	196
2.78833	197
2.79200	199
2.79567	201
2.79933	206
2.80300	210
2.80667	215
2.81033	221
2.81400	228
2.81767	234
2.82133	240
2.82500	254
2.82867	285
2.83233	348
2.83600	459
2.83967	640
2.84333	914
2.84700	1288
2.85067	1758
2.85433	2303
2.85800	2887
2.86167	3468
2.86533	3997
2.86900	4430
2.87267	4738
2.87633	4904
2.88000	4927
2.88367	4824
2.88733	4623
2.89100	4347
2.89467	4025
2.89833	3683
2.90200	3339
2.90567	3005
2.90933	2690
2.91300	2398
2.91667	2132
2.92033	1891
2.92400	1677
2.92767	1488
2.93133	1323
2.93500	1176
2.93867	1046
2.94233	931
2.94600	832
2.94967	746
2.95333	673
2.95700	610
2.96067	554
2.96433	507
2.96800	465
2.97167	431
2.97533	403
2.97900	378
2.98267	355
2.98633	333
2.99000	314
2.99367	298
2.99733	286
3.00100	277
3.00467	269
3.00833	262
3.01200	257
3.01567	254
3.01933	249
3.02300	244
3.02667	242
3.03033	240
3.03400	237
3.03767	233
3.04133	229
3.04500	226
3.04867	224
3.05233	223
3.05600	222
3.05967	222
3.06333	225
3.06700	227
3.07067	228
3.07433	226
3.07800	214
3.08167	184
3.08533	165
3.08900	173
3.09267	201
3.09633	241
3.10000	292
3.10367	347
3.10733	403
3.11100	458
3.11467	511
3.11833	562
3.12200	606
3.12567	645
3.12933	676
3.13300	704
3.13667	730
3.14033	752
3.14400	770
3.14767	783
3.15133	797
3.15500	811
3.15867	821
3.16233	830
3.16600	838
3.16967	846
3.17333	853
3.17700	858
3.18067	865
3.18433	871
3.18800	876
3.19167	882
3.19533	888
3.19900	893
3.20267	897
3.20633	902
3.21000	905
3.21367	911
3.21733	917
3.22100	922
3.22467	927
3.22833	932
3.23200	935
3.23567	940
3.23933	946
3.24300	951
3.24667	955
3.25033	959
3.25400	963
3.25767	966
3.26133	969
3.26500	975
3.26867	979
3.27233	982
3.27600	985
3.27967	989
3.28333	993
3.28700	994
3.29067	995
3.29433	998
3.29800	1001
3.30167	1003
3.30533	1007
3.30900	1010
3.31267	1012
3.31633	1013
3.32000	1011
3.32367	1012
3.32733	1013
3.33100	1013
3.33467	1013
3.33833	1011
3.34200	1008
3.34567	1006
3.34933	1002
3.35300	999
3.35667	997
3.36033	993
3.36400	987
3.36767	981
3.37133	978
3.37500	973
3.37867	970
3.38233	969
3.38600	969
3.38967	967
3.39333	963
3.39700	957
3.40067	952
3.40433	948
3.40800	945
3.41167	943
3.41533	942
3.41900	939
3.42267	935
3.42633	930
3.43000	926
3.43367	925
3.43733	923
3.44100	918
3.44467	915
3.44833	914
3.45200	912
3.45567	911
3.45933	910
3.46300	909
3.46667	907
3.47033	905
3.47400	904
3.47767	901
3.48133	897
3.48500	892
3.48867	888
3.49233	888
3.49600	886
3.49967	885
3.50333	886
3.50700	886
3.51067	883
3.51433	879
3.51800	878
3.52167	878
3.52533	878
3.52900	878
3.53267	875
3.53633	871
3.54000	870
3.54367	869
3.54733	869
3.55100	866
3.55467	864
3.55833	862
3.56200	860
3.56567	857
3.56933	852
3.57300	849
3.57667	847
3.58033	844
3.58400	842
3.58767	843
3.59133	842
3.59500	841
3.59867	842
3.60233	843
3.60600	843
3.60967	842
3.61333	841
3.61700	839
3.62067	834
3.62433	828
3.62800	823
3.63167	819
3.63533	817
3.63900	816
3.64267	814
3.64633	811
3.65000	807
3.65367	802
3.65733	799
3.66100	799
3.66467	796
3.66833	795
3.67200	793
3.67567	789
3.67933	787
3.68300	784
3.68667	780
3.69033	776
3.69400	773
3.69767	771
3.70133	771
3.70500	769
3.70867	766
3.71233	764
3.71600	761
3.71967	760
3.72333	759
3.72700	758
3.73067	758
3.73433	758
3.73800	754
3.74167	749
3.74533	744
3.74900	740
3.75267	737
3.75633	734
3.76000	733
3.76367	731
3.76733	730
3.77100	727
3.77467	726
3.77833	724
3.78200	723
3.78567	722
3.78933	722
3.79300	720
3.79667	716
3.80033	711
3.80400	708
3.80767	707
3.81133	705
3.81500	704
3.81867	703
3.82233	702
3.82600	699
3.82967	698
3.83333	696
3.83700	696
3.84067	694
3.84433	692
3.84800	691
3.85167	689
3.85533	685
3.85900	681
3.86267	679
3.86633	679
3.87000	678
3.87367	677
3.87733	676
3.88100	674
3.88467	671
3.88833	670
3.89200	670
3.89567	669
3.89933	668
3.90300	667
3.90667	664
3.91033	663
3.91400	661
3.91767	660
3.92133	657
3.92500	652
3.92867	650
3.93233	649
3.93600	649
3.93967	648
3.94333	648
3.94700	645
3.95067	643
3.95433	641
3.95800	640
3.96167	640
3.96533	638
3.96900	637
3.97267	637
3.97633	637
3.98000	635
3.98367	633
3.98733	634
3.99100	632
3.99467	629
3.99833	624

[Status Trace (Column Oven Temperature)]
Interval(msec)	1000
# of Points	240
Start Time(min)	0.006
End Time(min)	3.990
Intensity Units	
Intensity Multiplier	1
R.Time (min)	Intensity
0.00630	35.09
0.02297	35.08
0.03963	35.07
0.05630	35.05
0.07297	35.04
0.08963	35.01
0.10630	35.01
0.12297	35.00
0.13963	35.01
0.15630	35.01
0.17297	35.01
0.18963	35.01
0.20630	35.01
0.22297	35.02
0.23963	35.02
0.25630	35.02
0.27297	35.01
0.28963	35.00
0.30630	35.00
0.32297	35.00
0.33963	35.00
0.35630	35.00
0.37297	35.00
0.38963	35.01
0.40630	35.01
0.42297	35.02
0.43963	35.03
0.45630	35.04
0.47297	35.04
0.48963	35.03
0.50630	35.04
0.52297	35.03
0.53963	35.02
0.55630	35.02
0.57297	35.02
0.58963	35.01
0.60630	35.01
0.62297	35.00
0.63963	35.00
0.65630	35.01
0.67297	35.01
0.68963	35.01
0.70630	35.02
0.72297	35.02
0.73963	35.03
0.75630	35.03
0.77297	35.02
0.78963	35.03
0.80630	35.03
0.82297	35.03
0.83963	35.02
0.85630	35.03
0.87297	35.03
0.88963	35.02
0.90630	35.02
0.92297	35.02
0.93963	35.01
0.95630	35.00
0.97297	34.99
0.98963	34.97
1.00630	34.98
1.02297	34.99
1.03963	34.98
1.05630	34.99
1.07297	34.99
1.08963	34.99
1.10630	34.99
1.12297	35.00
1.13963	34.99
1.15630	34.98
1.17297	34.98
1.18963	34.98
1.20630	34.99
1.22297	34.99
1.23963	34.99
1.25630	34.99
1.27297	35.00
1.28963	35.00
1.30630	35.00
1.32297	34.99
1.33963	34.97
1.35630	34.97
1.37297	34.98
1.38963	34.97
1.40630	34.98
1.42297	34.99
1.43963	34.99
1.45630	34.98
1.47297	34.98
1.48963	34.97
1.50630	34.97
1.52297	34.97
1.53963	34.98
1.55630	34.99
1.57297	34.99
1.58963	35.01
1.60630	35.05
1.62297	35.17
1.63963	35.35
1.65630	35.58
1.67297	35.92
1.68963	36.31
1.70630	36.67
1.72297	36.99
1.73963	37.29
1.75630	37.64
1.77297	37.97
1.78963	38.32
1.80630	38.65
1.82297	38.95
1.83963	39.29
1.85630	39.62
1.87297	39.95
1.88963	40.28
1.90630	40.59
1.92297	40.92
1.93963	41.25
1.95630	41.60
1.97297	41.91
1.98963	42.24
2.00630	42.57
2.02297	42.90
2.03963	43.23
2.05630	43.56
2.07297	43.90
2.08963	44.22
2.10630	44.54
2.12297	44.86
2.13963	45.18
2.15630	45.52
2.17297	45.86
2.18963	46.18
2.20630	46.51
2.22297	46.83
2.23963	47.15
2.25630	47.49
2.27297	47.82
2.28963	48.13
2.30630	48.47
2.32297	48.81
2.33963	49.12
2.35630	49.42
2.37297	49.60
2.38963	49.65
2.40630	49.65
2.42297	49.65
2.43963	49.67
2.45630	49.67
2.47297	49.68
2.48963	49.69
2.50630	49.71
2.52297	49.73
2.53963	49.74
2.55630	49.76
2.57297	49.77
2.58963	49.79
2.60630	49.80
2.62297	49.83
2.63963	49.86
2.65630	49.85
2.67297	49.84
2.68963	49.86
2.70630	49.86
2.72297	49.85
2.73963	49.84
2.75630	49.86
2.77297	49.88
2.78963	49.88
2.80630	49.88
2.82297	49.88
2.83963	49.89
2.85630	49.90
2.87297	49.90
2.88963	49.92
2.90630	49.93
2.92297	49.93
2.93963	49.93
2.95630	49.95
2.97297	49.96
2.98963	49.98
3.00630	49.99
3.02297	49.99
3.03963	50.00
3.05630	50.01
3.07297	50.02
3.08963	50.03
3.10630	50.04
3.12297	50.05
3.13963	50.06
3.15630	50.06
3.17297	50.07
3.18963	50.06
3.20630	50.07
3.22297	50.08
3.23963	50.09
3.25630	50.09
3.27297	50.09
3.28963	50.09
3.30630	50.09
3.32297	50.09
3.33963	50.10
3.35630	50.11
3.37297	50.11
3.38963	50.10
3.40630	50.09
3.42297	50.08
3.43963	50.07
3.45630	50.08
3.47297	50.08
3.48963	50.07
3.50630	50.07
3.52297	50.06
3.53963	50.07
3.55630	50.07
3.57297	50.07
3.58963	50.07
3.60630	50.08
3.62297	50.07
3.63963	50.08
3.65630	50.08
3.67297	50.08
3.68963	50.08
3.70630	50.08
3.72297	50.07
3.73963	50.08
3.75630	50.08
3.77297	50.08
3.78963	50.08
3.80630	50.09
3.82297	50.09
3.83963	50.10
3.85630	50.10
3.87297	50.10
3.88963	50.08
3.90630	50.08
3.92297	50.08
3.93963	50.08
3.95630	50.06
3.97297	50.05
3.98963	50.04

[Status Trace (Injection Unit Temperature)]
Interval(msec)	1000
# of Points	240
Start Time(min)	0.006
End Time(min)	3.990
Intensity Units	
Intensity Multiplier	1
R.Time (min)	Intensity
0.00630	99.99
0.02297	99.99
0.03963	99.99
0.05630	99.99
0.07297	99.99
0.08963	99.99
0.10630	99.98
0.12297	99.99
0.13963	99.98
0.15630	99.98
0.17297	99.98
0.18963	99.98
0.20630	99.98
0.22297	99.98
0.23963	99.98
0.25630	99.98
0.27297	99.98
0.28963	99.98
0.30630	99.98
0.32297	99.98
0.33963	99.98
0.35630	99.98
0.37297	99.98
0.38963	99.98
0.40630	99.98
0.42297	99.98
0.43963	99.98
0.45630	99.98
0.47297	99.98
0.48963	99.98
0.50630	99.97
0.52297	99.98
0.53963	99.98
0.55630	99.97
0.57297	99.98
0.58963	99.98
0.60630	99.97
0.62297	99.98
0.63963	99.98
0.65630	99.97
0.67297	99.97
0.68963	99.98
0.70630	99.97
0.72297	99.98
0.73963	99.98
0.75630	99.98
0.77297	99.98
0.78963	99.98
0.80630	99.98
0.82297	99.98
0.83963	99.98
0.85630	99.98
0.87297	99.99
0.88963	99.98
0.90630	99.98
0.92297	99.99
0.93963	99.98
0.95630	99.98
0.97297	99.99
0.98963	99.98
1.00630	99.99
1.02297	99.99
1.03963	99.99
1.05630	99.99
1.07297	99.99
1.08963	99.98
1.10630	99.99
1.12297	99.99
1.13963	99.99
1.15630	99.99
1.17297	99.99
1.18963	99.99
1.20630	99.99
1.22297	99.99
1.23963	99.99
1.25630	99.99
1.27297	99.99
1.28963	99.99
1.30630	99.99
1.32297	99.99
1.33963	99.99
1.35630	99.99
1.37297	99.99
1.38963	99.99
1.40630	99.99
1.42297	99.99
1.43963	99.99
1.45630	99.99
1.47297	99.99
1.48963	99.99
1.50630	99.99
1.52297	99.99
1.53963	99.99
1.55630	99.99
1.57297	99.99
1.58963	99.99
1.60630	99.99
1.62297	99.99
1.63963	99.99
1.65630	99.99
1.67297	99.99
1.68963	99.99
1.70630	99.99
1.72297	99.99
1.73963	99.99
1.75630	99.99
1.77297	99.99
1.78963	99.98
1.80630	99.99
1.82297	99.98
1.83963	99.98
1.85630	99.99
1.87297	99.98
1.88963	99.98
1.90630	99.98
1.92297	99.98
1.93963	99.98
1.95630	99.98
1.97297	99.98
1.98963	99.97
2.00630	99.98
2.02297	99.97
2.03963	99.97
2.05630	99.98
2.07297	99.97
2.08963	99.97
2.10630	99.97
2.12297	99.97
2.13963	99.97
2.15630	99.97
2.17297	99.97
2.18963	99.97
2.20630	99.97
2.22297	99.97
2.23963	99.97
2.25630	99.97
2.27297	99.97
2.28963	99.97
2.30630	99.97
2.32297	99.97
2.33963	99.97
2.35630	99.97
2.37297	99.96
2.38963	99.97
2.40630	99.96
2.42297	99.97
2.43963	99.97
2.45630	99.96
2.47297	99.97
2.48963	99.97
2.50630	99.97
2.52297	99.97
2.53963	99.96
2.55630	99.97
2.57297	99.97
2.58963	99.98
2.60630	99.97
2.62297	99.98
2.63963	99.98
2.65630	99.98
2.67297	99.98
2.68963	99.98
2.70630	99.99
2.72297	99.99
2.73963	99.99
2.75630	99.99
2.77297	99.99
2.78963	99.99
2.80630	99.99
2.82297	100.00
2.83963	100.00
2.85630	100.00
2.87297	100.00
2.88963	100.00
2.90630	100.00
2.92297	100.01
2.93963	100.01
2.95630	100.01
2.97297	100.01
2.98963	100.02
3.00630	100.02
3.02297	100.01
3.03963	100.02
3.05630	100.02
3.07297	100.02
3.08963	100.02
3.10630	100.02
3.12297	100.02
3.13963	100.03
3.15630	100.02
3.17297	100.03
3.18963	100.03
3.20630	100.03
3.22297	100.03
3.23963	100.03
3.25630	100.03
3.27297	100.03
3.28963	100.03
3.30630	100.03
3.32297	100.03
3.33963	100.03
3.35630	100.03
3.37297	100.04
3.38963	100.04
3.40630	100.03
3.42297	100.04
3.43963	100.03
3.45630	100.03
3.47297	100.03
3.48963	100.03
3.50630	100.03
3.52297	100.03
3.53963	100.04
3.55630	100.03
3.57297	100.04
3.58963	100.04
3.60630	100.04
3.62297	100.03
3.63963	100.04
3.65630	100.04
3.67297	100.04
3.68963	100.04
3.70630	100.03
3.72297	100.04
3.73963	100.03
3.75630	100.04
3.77297	100.04
3.78963	100.04
3.80630	100.04
3.82297	100.04
3.83963	100.04
3.85630	100.04
3.87297	100.04
3.88963	100.04
3.90630	100.04
3.92297	100.04
3.93963	100.04
3.95630	100.04
3.97297	100.04
3.98963	100.04

[Status Trace (Carrier Gas Pressure)]
Interval(msec)	1000
# of Points	240
Start Time(min)	0.006
End Time(min)	3.990
Intensity Units	
Intensity Multiplier	1
R.Time (min)	Intensity
0.00630	58.00
0.02297	55.56
0.03963	56.87
0.05630	59.08
0.07297	59.52
0.08963	58.11
0.10630	57.98
0.12297	58.01
0.13963	58.01
0.15630	58.01
0.17297	58.00
0.18963	58.00
0.20630	58.00
0.22297	58.00
0.23963	58.00
0.25630	58.00
0.27297	58.00
0.28963	58.00
0.30630	58.00
0.32297	58.00
0.33963	58.00
0.35630	58.00
0.37297	58.00
0.38963	58.00
0.40630	58.00
0.42297	58.00
0.43963	58.00
0.45630	58.00
0.47297	58.00
0.48963	58.00
0.50630	58.00
0.52297	58.00
0.53963	58.00
0.55630	58.00
0.57297	58.00
0.58963	58.00
0.60630	58.00
0.62297	58.00
0.63963	58.00
0.65630	58.00
0.67297	58.00
0.68963	58.00
0.70630	58.00
0.72297	58.00
0.73963	58.00
0.75630	58.00
0.77297	58.00
0.78963	58.00
0.80630	58.00
0.82297	58.00
0.83963	58.00
0.85630	58.00
0.87297	58.00
0.88963	58.00
0.90630	58.00
0.92297	58.00
0.93963	58.00
0.95630	58.00
0.97297	58.00
0.98963	58.00
1.00630	58.00
1.02297	58.00
1.03963	58.00
1.05630	58.00
1.07297	58.00
1.08963	58.00
1.10630	58.00
1.12297	58.00
1.13963	58.00
1.15630	58.00
1.17297	58.00
1.18963	58.00
1.20630	58.00
1.22297	58.00
1.23963	58.00
1.25630	58.00
1.27297	58.00
1.28963	58.00
1.30630	58.00
1.32297	58.00
1.33963	58.00
1.35630	58.00
1.37297	58.00
1.38963	58.00
1.40630	58.00
1.42297	58.00
1.43963	58.00
1.45630	58.00
1.47297	58.00
1.48963	58.00
1.50630	58.00
1.52297	58.00
1.53963	58.00
1.55630	58.00
1.57297	58.00
1.58963	58.00
1.60630	58.00
1.62297	58.00
1.63963	58.01
1.65630	58.00
1.67297	58.01
1.68963	58.01
1.70630	58.00
1.72297	58.00
1.73963	58.00
1.75630	58.00
1.77297	58.00
1.78963	58.00
1.80630	58.00
1.82297	58.00
1.83963	58.00
1.85630	58.00
1.87297	58.00
1.88963	58.00
1.90630	58.00
1.92297	58.00
1.93963	58.00
1.95630	58.00
1.97297	58.00
1.98963	58.00
2.00630	58.00
2.02297	58.00
2.03963	58.00
2.05630	58.00
2.07297	58.00
2.08963	58.00
2.10630	58.00
2.12297	58.00
2.13963	58.00
2.15630	58.00
2.17297	58.00
2.18963	58.00
2.20630	58.00
2.22297	58.00
2.23963	58.00
2.25630	58.00
2.27297	58.00
2.28963	58.00
2.30630	58.00
2.32297	58.00
2.33963	58.00
2.35630	58.00
2.37297	57.99
2.38963	57.99
2.40630	57.99
2.42297	58.00
2.43963	58.00
2.45630	58.00
2.47297	58.00
2.48963	58.00
2.50630	57.99
2.52297	57.98
2.53963	58.00
2.55630	58.00
2.57297	58.00
2.58963	58.00
2.60630	58.00
2.62297	58.00
2.63963	58.00
2.65630	58.00
2.67297	58.00
2.68963	58.00
2.70630	58.00
2.72297	58.00
2.73963	58.00
2.75630	58.00
2.77297	58.00
2.78963	58.00
2.80630	58.00
2.82297	58.00
2.83963	58.00
2.85630	58.00
2.87297	58.00
2.88963	58.00
2.90630	58.00
2.92297	58.00
2.93963	58.00
2.95630	58.00
2.97297	58.00
2.98963	58.00
3.00630	58.00
3.02297	58.00
3.03963	58.00
3.05630	58.00
3.07297	58.00
3.08963	58.00
3.10630	58.00
3.12297	58.00
3.13963	58.00
3.15630	58.00
3.17297	58.00
3.18963	58.00
3.20630	58.00
3.22297	58.00
3.23963	58.00
3.25630	58.00
3.27297	58.00
3.28963	58.00
3.30630	58.00
3.32297	58.00
3.33963	58.00
3.35630	58.00
3.37297	58.00
3.38963	58.00
3.40630	58.00
3.42297	58.00
3.43963	58.00
3.45630	58.00
3.47297	58.00
3.48963	58.00
3.50630	58.00
3.52297	58.00
3.53963	58.00
3.55630	58.00
3.57297	58.00
3.58963	58.00
3.60630	58.00
3.62297	58.00
3.63963	58.00
3.65630	58.00
3.67297	58.00
3.68963	58.00
3.70630	58.00
3.72297	58.00
3.73963	58.00
3.75630	58.00
3.77297	58.00
3.78963	58.00
3.80630	58.00
3.82297	58.00
3.83963	58.00
3.85630	58.00
3.87297	58.00
3.88963	58.00
3.90630	58.00
3.92297	58.00
3.93963	58.00
3.95630	58.00
3.97297	58.00
3.98963	58.00

[Status Trace (Carrier Gas Flow)]
Interval(msec)	1000
# of Points	240
Start Time(min)	0.006
End Time(min)	3.990
Intensity Units	
Intensity Multiplier	1
R.Time (min)	Intensity
0.00630	34.52
0.02297	34.54
0.03963	34.54
0.05630	34.55
0.07297	34.50
0.08963	34.52
0.10630	34.51
0.12297	34.53
0.13963	34.51
0.15630	34.52
0.17297	34.52
0.18963	34.52
0.20630	34.52
0.22297	34.52
0.23963	34.52
0.25630	34.52
0.27297	34.52
0.28963	34.52
0.30630	34.52
0.32297	34.52
0.33963	34.52
0.35630	34.52
0.37297	34.52
0.38963	34.52
0.40630	34.52
0.42297	34.52
0.43963	34.52
0.45630	34.52
0.47297	34.52
0.48963	34.52
0.50630	34.52
0.52297	34.52
0.53963	34.51
0.55630	34.52
0.57297	34.52
0.58963	34.52
0.60630	34.52
0.62297	34.51
0.63963	34.52
0.65630	34.52
0.67297	34.52
0.68963	34.52
0.70630	34.52
0.72297	34.52
0.73963	34.52
0.75630	34.52
0.77297	34.52
0.78963	34.52
0.80630	34.52
0.82297	34.52
0.83963	34.52
0.85630	34.52
0.87297	34.52
0.88963	34.52
0.90630	34.53
0.92297	34.52
0.93963	34.53
0.95630	34.52
0.97297	34.51
0.98963	34.52
1.00630	34.52
1.02297	34.52
1.03963	34.52
1.05630	34.52
1.07297	34.52
1.08963	34.52
1.10630	34.52
1.12297	34.52
1.13963	34.52
1.15630	34.51
1.17297	34.52
1.18963	34.52
1.20630	34.52
1.22297	34.52
1.23963	34.52
1.25630	34.52
1.27297	34.52
1.28963	34.52
1.30630	34.52
1.32297	34.52
1.33963	34.52
1.35630	34.52
1.37297	34.51
1.38963	34.52
1.40630	34.52
1.42297	34.51
1.43963	34.52
1.45630	34.52
1.47297	34.52
1.48963	34.52
1.50630	34.52
1.52297	34.52
1.53963	34.52
1.55630	34.52
1.57297	34.52
1.58963	34.52
1.60630	34.52
1.62297	34.52
1.63963	34.52
1.65630	34.52
1.67297	34.51
1.68963	34.51
1.70630	34.51
1.72297	34.51
1.73963	34.52
1.75630	34.52
1.77297	34.52
1.78963	34.52
1.80630	34.52
1.82297	34.52
1.83963	34.51
1.85630	34.52
1.87297	34.52
1.88963	34.52
1.90630	34.52
1.92297	34.52
1.93963	34.52
1.95630	34.52
1.97297	34.52
1.98963	34.52
2.00630	34.52
2.02297	34.52
2.03963	34.52
2.05630	34.52
2.07297	34.52
2.08963	34.52
2.10630	34.52
2.12297	34.52
2.13963	34.52
2.15630	34.52
2.17297	34.52
2.18963	34.52
2.20630	34.52
2.22297	34.52
2.23963	34.52
2.25630	34.52
2.27297	34.52
2.28963	34.52
2.30630	34.52
2.32297	34.52
2.33963	34.51
2.35630	34.51
2.37297	34.52
2.38963	34.51
2.40630	34.52
2.42297	34.52
2.43963	34.52
2.45630	34.52
2.47297	34.52
2.48963	34.51
2.50630	34.44
2.52297	34.52
2.53963	34.52
2.55630	34.52
2.57297	34.52
2.58963	34.52
2.60630	34.52
2.62297	34.52
2.63963	34.52
2.65630	34.51
2.67297	34.52
2.68963	34.52
2.70630	34.52
2.72297	34.52
2.73963	34.52
2.75630	34.52
2.77297	34.52
2.78963	34.52
2.80630	34.52
2.82297	34.52
2.83963	34.52
2.85630	34.51
2.87297	34.52
2.88963	34.51
2.90630	34.52
2.92297	34.52
2.93963	34.52
2.95630	34.52
2.97297	34.52
2.98963	34.51
3.00630	34.52
3.02297	34.52
3.03963	34.52
3.05630	34.51
3.07297	34.52
3.08963	34.52
3.10630	34.52
3.12297	34.52
3.13963	34.51
3.15630	34.52
3.17297	34.52
3.18963	34.52
3.20630	34.52
3.22297	34.52
3.23963	34.52
3.25630	34.52
3.27297	34.52
3.28963	34.52
3.30630	34.52
3.32297	34.52
3.33963	34.52
3.35630	34.52
3.37297	34.52
3.38963	34.52
3.40630	34.52
3.42297	34.52
3.43963	34.52
3.45630	34.52
3.47297	34.52
3.48963	34.52
3.50630	34.52
3.52297	34.52
3.53963	34.52
3.55630	34.51
3.57297	34.52
3.58963	34.52
3.60630	34.52
3.62297	34.52
3.63963	34.52
3.65630	34.52
3.67297	34.52
3.68963	34.52
3.70630	34.52
3.72297	34.52
3.73963	34.51
3.75630	34.52
3.77297	34.51
3.78963	34.52
3.80630	34.52
3.82297	34.52
3.83963	34.52
3.85630	34.52
3.87297	34.52
3.88963	34.52
3.90630	34.52
3.92297	34.51
3.93963	34.52
3.95630	34.52
3.97297	34.52
3.98963	34.52

[Status Trace (Column Flow)]
Interval(msec)	1000
# of Points	240
Start Time(min)	0.006
End Time(min)	3.990
Intensity Units	
Intensity Multiplier	1
R.Time (min)	Intensity
0.00630	5.52
0.02297	5.24
0.03963	5.39
0.05630	5.65
0.07297	5.70
0.08963	5.54
0.10630	5.52
0.12297	5.52
0.13963	5.52
0.15630	5.52
0.17297	5.52
0.18963	5.52
0.20630	5.52
0.22297	5.52
0.23963	5.52
0.25630	5.52
0.27297	5.52
0.28963	5.52
0.30630	5.52
0.32297	5.52
0.33963	5.52
0.35630	5.52
0.37297	5.52
0.38963	5.52
0.40630	5.52
0.42297	5.52
0.43963	5.52
0.45630	5.52
0.47297	5.52
0.48963	5.52
0.50630	5.52
0.52297	5.52
0.53963	5.52
0.55630	5.52
0.57297	5.52
0.58963	5.52
0.60630	5.52
0.62297	5.52
0.63963	5.52
0.65630	5.52
0.67297	5.52
0.68963	5.52
0.70630	5.52
0.72297	5.52
0.73963	5.52
0.75630	5.52
0.77297	5.52
0.78963	5.52
0.80630	5.52
0.82297	5.52
0.83963	5.52
0.85630	5.52
0.87297	5.52
0.88963	5.52
0.90630	5.52
0.92297	5.52
0.93963	5.52
0.95630	5.52
0.97297	5.52
0.98963	5.52
1.00630	5.52
1.02297	5.52
1.03963	5.52
1.05630	5.52
1.07297	5.52
1.08963	5.52
1.10630	5.52
1.12297	5.52
1.13963	5.52
1.15630	5.52
1.17297	5.52
1.18963	5.52
1.20630	5.52
1.22297	5.52
1.23963	5.52
1.25630	5.52
1.27297	5.52
1.28963	5.52
1.30630	5.52
1.32297	5.52
1.33963	5.52
1.35630	5.52
1.37297	5.52
1.38963	5.52
1.40630	5.52
1.42297	5.52
1.43963	5.52
1.45630	5.52
1.47297	5.52
1.48963	5.52
1.50630	5.53
1.52297	5.52
1.53963	5.52
1.55630	5.52
1.57297	5.52
1.58963	5.52
1.60630	5.52
1.62297	5.52
1.63963	5.51
1.65630	5.51
1.67297	5.50
1.68963	5.48
1.70630	5.47
1.72297	5.46
1.73963	5.45
1.75630	5.44
1.77297	5.43
1.78963	5.42
1.80630	5.41
1.82297	5.40
1.83963	5.39
1.85630	5.38
1.87297	5.37
1.88963	5.36
1.90630	5.35
1.92297	5.34
1.93963	5.33
1.95630	5.32
1.97297	5.31
1.98963	5.30
2.00630	5.29
2.02297	5.28
2.03963	5.27
2.05630	5.26
2.07297	5.25
2.08963	5.24
2.10630	5.24
2.12297	5.23
2.13963	5.22
2.15630	5.21
2.17297	5.20
2.18963	5.19
2.20630	5.18
2.22297	5.17
2.23963	5.16
2.25630	5.15
2.27297	5.14
2.28963	5.13
2.30630	5.12
2.32297	5.11
2.33963	5.11
2.35630	5.10
2.37297	5.09
2.38963	5.09
2.40630	5.09
2.42297	5.09
2.43963	5.09
2.45630	5.09
2.47297	5.09
2.48963	5.09
2.50630	5.09
2.52297	5.09
2.53963	5.09
2.55630	5.09
2.57297	5.09
2.58963	5.09
2.60630	5.09
2.62297	5.09
2.63963	5.08
2.65630	5.08
2.67297	5.08
2.68963	5.08
2.70630	5.08
2.72297	5.08
2.73963	5.08
2.75630	5.08
2.77297	5.08
2.78963	5.08
2.80630	5.08
2.82297	5.08
2.83963	5.08
2.85630	5.08
2.87297	5.08
2.88963	5.08
2.90630	5.08
2.92297	5.08
2.93963	5.08
2.95630	5.08
2.97297	5.08
2.98963	5.08
3.00630	5.08
3.02297	5.08
3.03963	5.08
3.05630	5.08
3.07297	5.08
3.08963	5.08
3.10630	5.08
3.12297	5.08
3.13963	5.08
3.15630	5.08
3.17297	5.08
3.18963	5.08
3.20630	5.08
3.22297	5.08
3.23963	5.08
3.25630	5.08
3.27297	5.08
3.28963	5.08
3.30630	5.08
3.32297	5.08
3.33963	5.08
3.35630	5.08
3.37297	5.08
3.38963	5.08
3.40630	5.08
3.42297	5.08
3.43963	5.08
3.45630	5.08
3.47297	5.08
3.48963	5.08
3.50630	5.08
3.52297	5.08
3.53963	5.08
3.55630	5.08
3.57297	5.08
3.58963	5.08
3.60630	5.08
3.62297	5.08
3.63963	5.08
3.65630	5.08
3.67297	5.08
3.68963	5.08
3.70630	5.08
3.72297	5.08
3.73963	5.08
3.75630	5.08
3.77297	5.08
3.78963	5.08
3.80630	5.08
3.82297	5.08
3.83963	5.08
3.85630	5.08
3.87297	5.08
3.88963	5.08
3.90630	5.08
3.92297	5.08
3.93963	5.08
3.95630	5.08
3.97297	5.08
3.98963	5.08

[Status Trace (Linear Velocity)]
Interval(msec)	1000
# of Points	240
Start Time(min)	0.006
End Time(min)	3.990
Intensity Units	
Intensity Multiplier	1
R.Time (min)	Intensity
0.00630	39.01
0.02297	37.41
0.03963	38.27
0.05630	39.72
0.07297	40.01
0.08963	39.09
0.10630	39.00
0.12297	39.02
0.13963	39.02
0.15630	39.02
0.17297	39.02
0.18963	39.02
0.20630	39.02
0.22297	39.02
0.23963	39.02
0.25630	39.02
0.27297	39.02
0.28963	39.02
0.30630	39.02
0.32297	39.02
0.33963	39.02
0.35630	39.02
0.37297	39.02
0.38963	39.02
0.40630	39.02
0.42297	39.02
0.43963	39.02
0.45630	39.01
0.47297	39.01
0.48963	39.01
0.50630	39.01
0.52297	39.01
0.53963	39.01
0.55630	39.02
0.57297	39.02
0.58963	39.02
0.60630	39.02
0.62297	39.02
0.63963	39.02
0.65630	39.02
0.67297	39.02
0.68963	39.02
0.70630	39.02
0.72297	39.02
0.73963	39.02
0.75630	39.01
0.77297	39.01
0.78963	39.01
0.80630	39.02
0.82297	39.01
0.83963	39.01
0.85630	39.01
0.87297	39.01
0.88963	39.02
0.90630	39.02
0.92297	39.02
0.93963	39.02
0.95630	39.02
0.97297	39.02
0.98963	39.02
1.00630	39.02
1.02297	39.02
1.03963	39.02
1.05630	39.02
1.07297	39.02
1.08963	39.02
1.10630	39.02
1.12297	39.02
1.13963	39.02
1.15630	39.02
1.17297	39.02
1.18963	39.02
1.20630	39.02
1.22297	39.02
1.23963	39.02
1.25630	39.02
1.27297	39.02
1.28963	39.02
1.30630	39.02
1.32297	39.02
1.33963	39.02
1.35630	39.02
1.37297	39.02
1.38963	39.02
1.40630	39.02
1.42297	39.02
1.43963	39.02
1.45630	39.02
1.47297	39.02
1.48963	39.02
1.50630	39.02
1.52297	39.02
1.53963	39.02
1.55630	39.02
1.57297	39.02
1.58963	39.02
1.60630	39.01
1.62297	39.00
1.63963	38.99
1.65630	38.96
1.67297	38.93
1.68963	38.90
1.70630	38.86
1.72297	38.83
1.73963	38.80
1.75630	38.77
1.77297	38.74
1.78963	38.70
1.80630	38.67
1.82297	38.64
1.83963	38.61
1.85630	38.58
1.87297	38.55
1.88963	38.52
1.90630	38.49
1.92297	38.46
1.93963	38.43
1.95630	38.39
1.97297	38.36
1.98963	38.33
2.00630	38.30
2.02297	38.27
2.03963	38.24
2.05630	38.21
2.07297	38.18
2.08963	38.15
2.10630	38.12
2.12297	38.09
2.13963	38.07
2.15630	38.03
2.17297	38.00
2.18963	37.97
2.20630	37.95
2.22297	37.92
2.23963	37.89
2.25630	37.86
2.27297	37.83
2.28963	37.80
2.30630	37.77
2.32297	37.74
2.33963	37.71
2.35630	37.68
2.37297	37.67
2.38963	37.66
2.40630	37.66
2.42297	37.66
2.43963	37.66
2.45630	37.66
2.47297	37.66
2.48963	37.66
2.50630	37.66
2.52297	37.64
2.53963	37.65
2.55630	37.66
2.57297	37.65
2.58963	37.65
2.60630	37.65
2.62297	37.65
2.63963	37.65
2.65630	37.65
2.67297	37.65
2.68963	37.65
2.70630	37.65
2.72297	37.65
2.73963	37.65
2.75630	37.65
2.77297	37.64
2.78963	37.64
2.80630	37.64
2.82297	37.64
2.83963	37.64
2.85630	37.64
2.87297	37.64
2.88963	37.64
2.90630	37.64
2.92297	37.64
2.93963	37.64
2.95630	37.64
2.97297	37.64
2.98963	37.64
3.00630	37.63
3.02297	37.63
3.03963	37.63
3.05630	37.63
3.07297	37.63
3.08963	37.63
3.10630	37.63
3.12297	37.63
3.13963	37.63
3.15630	37.63
3.17297	37.63
3.18963	37.63
3.20630	37.63
3.22297	37.63
3.23963	37.63
3.25630	37.63
3.27297	37.63
3.28963	37.63
3.30630	37.63
3.32297	37.63
3.33963	37.62
3.35630	37.62
3.37297	37.62
3.38963	37.62
3.40630	37.63
3.42297	37.63
3.43963	37.63
3.45630	37.63
3.47297	37.63
3.48963	37.63
3.50630	37.63
3.52297	37.63
3.53963	37.63
3.55630	37.63
3.57297	37.63
3.58963	37.63
3.60630	37.63
3.62297	37.63
3.63963	37.63
3.65630	37.63
3.67297	37.63
3.68963	37.63
3.70630	37.63
3.72297	37.63
3.73963	37.63
3.75630	37.63
3.77297	37.63
3.78963	37.63
3.80630	37.63
3.82297	37.63
3.83963	37.62
3.85630	37.62
3.87297	37.62
3.88963	37.63
3.90630	37.63
3.92297	37.63
3.93963	37.63
3.95630	37.63
3.97297	37.63
3.98963	37.63

