[Header]
Application Name	LabSolutions
Version	5.110
Data File Name	C:\Users\User\Desktop\GC Analyses\Jack\Nachusa Grasslands Sampling\T3 Timepoint July 12th\T3_07122022_010.gcd
Output Date	3/14/2023
Output Time	3:43:30 PM

[File Information]
Type	Data File
Generated	3/13/2023 3:29:06 PM
Generated by	System Administrator
Modified	3/13/2023 3:35:53 PM
Modified by	System Administrator

[Sample Information]
Operator Name	System Administrator
Acquired	3/13/2023 3:31:52 PM
Sample Type	0:Unknown
Level	0
Sample Name	010
Sample ID	010
ISTD Amount1	1
ISTD Amount2	1
ISTD Amount3	1
ISTD Amount4	1
ISTD Amount5	1
ISTD Amount6	1
ISTD Amount7	1
ISTD Amount8	1
ISTD Amount9	1
ISTD Amount10	1
ISTD Amount11	1
ISTD Amount12	1
ISTD Amount13	1
ISTD Amount14	1
ISTD Amount15	1
ISTD Amount16	1
ISTD Amount17	1
ISTD Amount18	1
ISTD Amount19	1
ISTD Amount20	1
ISTD Amount21	1
ISTD Amount22	1
ISTD Amount23	1
ISTD Amount24	1
ISTD Amount25	1
ISTD Amount26	1
ISTD Amount27	1
ISTD Amount28	1
ISTD Amount29	1
ISTD Amount30	1
ISTD Amount31	1
ISTD Amount32	1
Sample Amount	1
Dilution Factor	1
Vial#	9
Injection Volume	1
Injection Count	1
Bar Code	

[Original Files]
Data File	C:\Users\User\Desktop\GC Analyses\Jack\Nachusa Grasslands Sampling\T3 Timepoint July 12th\T3_07122022_010.gcd
Method File	C:\LabSolutions\Data\GHG_4min_2022\ghg3_togas_w_acet_4 min_new_int.gcm
Batch File	C:\LabSolutions\Data\AutoSamplerTesting\T3_07122022.gcb
Report Format File	c:\LabSolutions\System\DEFAULT.lsr

[File Description]


[Configuration]
Instrument Name	C0B7VH3-Instrument1
Instrument #	1
Line #	1
# of Detectors	3
Detector ID	DET#1	DET#2	DET#3
Detector Name	FID	PTCD	ECD
# of Channels	1	1	1

[Peak Table(Ch1)]
# of Peaks	3
Peak#	R.Time	I.Time	F.Time	Area	Height	A/H	Conc.	Mark	ID#	Name	k'	Plate #	Plate Ht.	Tailing	Resolution	Sep.Factor	Area Ratio	Height Ratio	Conc. %	Norm Conc.
1	1.476	1.377	1.531	24341	11663	2.087	171.849	   	1	CO	0.000	9529	15.741	1.162	0.000	0.000	0	0	25.199	25.199
2	1.571	1.538	1.622	3754	1913	1.962	72.581	   	2	CH4	0.065	11585	12.948	1.143	1.604	0.000	0	0	10.643	10.643
3	2.000	1.952	2.301	1743387	843056	2.068	437.543	   	3	CO2	0.355	17689	8.480	1.175	7.238	5.500	0	0	64.158	64.158

[Peak Table(Ch2)]
# of Peaks	0

[Peak Table(Ch3)]
# of Peaks	5
Peak#	R.Time	I.Time	F.Time	Area	Height	A/H	Conc.	Mark	ID#	Name	k'	Plate #	Plate Ht.	Tailing	Resolution	Sep.Factor	Area Ratio	Height Ratio	Conc. %	Norm Conc.
1	2.462	2.414	2.506	1269	461	2.755	0.000	   			0.000	11429	13.124	0.000	0.000	0.000	0	0	0.000	0.000
2	2.524	2.506	2.579	824	271	3.041	0.000	 V 			0.025	4762	31.497	0.000	0.523	0.000	0	0	0.000	0.000
3	2.609	2.579	2.671	474	140	3.386	0.000	 V 			0.060	3568	42.038	0.000	0.525	2.353	0	0	0.000	0.000
4	2.880	2.689	3.093	17916	4680	3.828	0.458	   	1	N2O	0.170	13423	11.175	1.488	1.980	2.850	0	0	100.000	100.000
5	3.294	3.100	3.874	17608	674	26.142	0.000	   	2	SF6	0.338	312	480.314	1.960	0.981	1.991	0	0	0.000	0.000

[Compound Results(Ch1)]
# of IDs	6
ID#	Name	R.Time	Area	Height	Conc.	Curve	3rd	2nd	1st	Constant	Area Ratio	Height Ratio	Conc. %	Norm Conc.
1	CO	1.476	24341	11663	171.849	Linear	0.000000e+00	0.000000e+00	1.416423e+002	0.000000e+00	0	0	25.199	25.199
2	CH4	1.571	3754	1913	72.581	Linear	0.000000e+00	0.000000e+00	5.171738e+001	0.000000e+00	0	0	10.643	10.643
3	CO2	2.000	1743387	843056	437.543	Linear	0.000000e+00	0.000000e+00	3.984494e+003	0.000000e+00	0	0	64.158	64.158
4	Ethylene	0.000	0	0	0.000	Linear	0.000000e+00	0.000000e+00	0.000000e+00	0.000000e+00	0	0	0.000	0.000
5	Acetylene	0.000	0	0	0.000	Linear	0.000000e+00	0.000000e+00	0.000000e+00	0.000000e+00	0	0	0.000	0.000
6	Ethane	0.000	0	0	0.000	Linear	0.000000e+00	0.000000e+00	0.000000e+00	0.000000e+00	0	0	0.000	0.000

[Compound Results(Ch2)]
# of IDs	5
ID#	Name	R.Time	Area	Height	Conc.	Curve	3rd	2nd	1st	Constant	Area Ratio	Height Ratio	Conc. %	Norm Conc.
1	Hydrogen	0.000	0	0	0.000	Linear	0.000000e+00	0.000000e+00	0.000000e+00	0.000000e+00	0	0	0.000	0.000
2	Oxygen	0.000	0	0	0.000	Linear	0.000000e+00	0.000000e+00	0.000000e+00	0.000000e+00	0	0	0.000	0.000
3	Nitrogen	0.000	0	0	0.000	Linear	0.000000e+00	0.000000e+00	0.000000e+00	0.000000e+00	0	0	0.000	0.000
4	Methane	0.000	0	0	0.000	Linear	0.000000e+00	0.000000e+00	0.000000e+00	0.000000e+00	0	0	0.000	0.000
5	Carbon Monoxide	0.000	0	0	0.000	Linear	0.000000e+00	0.000000e+00	0.000000e+00	0.000000e+00	0	0	0.000	0.000

[Compound Results(Ch3)]
# of IDs	2
ID#	Name	R.Time	Area	Height	Conc.	Curve	3rd	2nd	1st	Constant	Area Ratio	Height Ratio	Conc. %	Norm Conc.
1	N2O	2.880	17916	4680	0.458	Linear	0.000000e+00	0.000000e+00	3.915173e+004	0.000000e+00	0	0	100.000	100.000
2	SF6	3.294	17608	674	0.000	Linear	0.000000e+00	0.000000e+00	0.000000e+00	0.000000e+00	0	0	0.000	0.000

[Group Results(Ch1)]
# of Groups	0

[Group Results(Ch2)]
# of Groups	0

[Group Results(Ch3)]
# of Groups	0

[Chromatogram (Ch1)]
Interval(msec)	220
# of Points	1091
Start Time(min)	0.002
End Time(min)	3.998
R.Time (min)	Intensity
0.00167	-63
0.00533	-69
0.00900	-67
0.01267	-57
0.01633	-43
0.02000	-33
0.02367	-29
0.02733	-31
0.03100	-32
0.03467	-34
0.03833	-32
0.04200	-34
0.04567	-39
0.04933	-41
0.05300	-36
0.05667	-30
0.06033	-23
0.06400	-18
0.06767	-12
0.07133	-7
0.07500	-6
0.07867	-4
0.08233	1
0.08600	-2
0.08967	-9
0.09333	-9
0.09700	-8
0.10067	-4
0.10433	-1
0.10800	1
0.11167	6
0.11533	10
0.11900	12
0.12267	13
0.12633	14
0.13000	14
0.13367	12
0.13733	9
0.14100	12
0.14467	20
0.14833	30
0.15200	36
0.15567	37
0.15933	34
0.16300	32
0.16667	35
0.17033	39
0.17400	42
0.17767	41
0.18133	41
0.18500	40
0.18867	38
0.19233	35
0.19600	28
0.19967	19
0.20333	12
0.20700	5
0.21067	5
0.21433	10
0.21800	10
0.22167	11
0.22533	18
0.22900	20
0.23267	15
0.23633	7
0.24000	2
0.24367	1
0.24733	3
0.25100	8
0.25467	8
0.25833	3
0.26200	3
0.26567	3
0.26933	-4
0.27300	-12
0.27667	-14
0.28033	-12
0.28400	-9
0.28767	-3
0.29133	-5
0.29500	-15
0.29867	-26
0.30233	-33
0.30600	-38
0.30967	-38
0.31333	-35
0.31700	-34
0.32067	-33
0.32433	-32
0.32800	-28
0.33167	-22
0.33533	-21
0.33900	-27
0.34267	-35
0.34633	-37
0.35000	-34
0.35367	-26
0.35733	-18
0.36100	-16
0.36467	-20
0.36833	-26
0.37200	-32
0.37567	-35
0.37933	-40
0.38300	-44
0.38667	-46
0.39033	-43
0.39400	-43
0.39767	-40
0.40133	-37
0.40500	-33
0.40867	-31
0.41233	-32
0.41600	-30
0.41967	-27
0.42333	-22
0.42700	-17
0.43067	-11
0.43433	-12
0.43800	-19
0.44167	-29
0.44533	-37
0.44900	-44
0.45267	-47
0.45633	-48
0.46000	-46
0.46367	-43
0.46733	-41
0.47100	-41
0.47467	-45
0.47833	-45
0.48200	-45
0.48567	-44
0.48933	-42
0.49300	-40
0.49667	-36
0.50033	-35
0.50400	-32
0.50767	-31
0.51133	-31
0.51500	-33
0.51867	-39
0.52233	-41
0.52600	-43
0.52967	-47
0.53333	-51
0.53700	-55
0.54067	-58
0.54433	-57
0.54800	-51
0.55167	-44
0.55533	-39
0.55900	-34
0.56267	-27
0.56633	-26
0.57000	-31
0.57367	-42
0.57733	-53
0.58100	-60
0.58467	-64
0.58833	-66
0.59200	-65
0.59567	-60
0.59933	-51
0.60300	-46
0.60667	-48
0.61033	-51
0.61400	-54
0.61767	-55
0.62133	-56
0.62500	-57
0.62867	-60
0.63233	-64
0.63600	-69
0.63967	-73
0.64333	-70
0.64700	-64
0.65067	-59
0.65433	-55
0.65800	-52
0.66167	-48
0.66533	-45
0.66900	-43
0.67267	-40
0.67633	-38
0.68000	-35
0.68367	-29
0.68733	-19
0.69100	-18
0.69467	-24
0.69833	-36
0.70200	-51
0.70567	-63
0.70933	-65
0.71300	-63
0.71667	-65
0.72033	-68
0.72400	-72
0.72767	-73
0.73133	-69
0.73500	-62
0.73867	-54
0.74233	-50
0.74600	-53
0.74967	-62
0.75333	-66
0.75700	-64
0.76067	-61
0.76433	-63
0.76800	-67
0.77167	-68
0.77533	-72
0.77900	-75
0.78267	-75
0.78633	-72
0.79000	-68
0.79367	-68
0.79733	-69
0.80100	-67
0.80467	-66
0.80833	-69
0.81200	-68
0.81567	-61
0.81933	-58
0.82300	-60
0.82667	-61
0.83033	-61
0.83400	-63
0.83767	-68
0.84133	-69
0.84500	-71
0.84867	-76
0.85233	-82
0.85600	-88
0.85967	-86
0.86333	-80
0.86700	-75
0.87067	-70
0.87433	-69
0.87800	-74
0.88167	-79
0.88533	-79
0.88900	-75
0.89267	-75
0.89633	-80
0.90000	-85
0.90367	-84
0.90733	-83
0.91100	-80
0.91467	-79
0.91833	-80
0.92200	-82
0.92567	-82
0.92933	-77
0.93300	-75
0.93667	-78
0.94033	-79
0.94400	-77
0.94767	-76
0.95133	-67
0.95500	-55
0.95867	-44
0.96233	-36
0.96600	-36
0.96967	-40
0.97333	-46
0.97700	-47
0.98067	-48
0.98433	-47
0.98800	-47
0.99167	-48
0.99533	-47
0.99900	-42
1.00267	-38
1.00633	-35
1.01000	-32
1.01367	-31
1.01733	-29
1.02100	-31
1.02467	-34
1.02833	-33
1.03200	-28
1.03567	-23
1.03933	-25
1.04300	-28
1.04667	-29
1.05033	-30
1.05400	-30
1.05767	-30
1.06133	-31
1.06500	-36
1.06867	-42
1.07233	-45
1.07600	-46
1.07967	-44
1.08333	-42
1.08700	-42
1.09067	-47
1.09433	-54
1.09800	-62
1.10167	-66
1.10533	-57
1.10900	-47
1.11267	-43
1.11633	-45
1.12000	-46
1.12367	-49
1.12733	-50
1.13100	-50
1.13467	-49
1.13833	-50
1.14200	-50
1.14567	-46
1.14933	-45
1.15300	-51
1.15667	-62
1.16033	-74
1.16400	-77
1.16767	-73
1.17133	-67
1.17500	-63
1.17867	-59
1.18233	-55
1.18600	-56
1.18967	-55
1.19333	-55
1.19700	-55
1.20067	-54
1.20433	-54
1.20800	-57
1.21167	-58
1.21533	-58
1.21900	-58
1.22267	-57
1.22633	-55
1.23000	-53
1.23367	-51
1.23733	-47
1.24100	-44
1.24467	-41
1.24833	-44
1.25200	-51
1.25567	-60
1.25933	-65
1.26300	-69
1.26667	-73
1.27033	-78
1.27400	-79
1.27767	-77
1.28133	-76
1.28500	-74
1.28867	-72
1.29233	-72
1.29600	-74
1.29967	-76
1.30333	-72
1.30700	-66
1.31067	-62
1.31433	-58
1.31800	-54
1.32167	-54
1.32533	-62
1.32900	-70
1.33267	-68
1.33633	-66
1.34000	-63
1.34367	-62
1.34733	-62
1.35100	-58
1.35467	-58
1.35833	-54
1.36200	-56
1.36567	-59
1.36933	-69
1.37300	-85
1.37667	-94
1.38033	-94
1.38400	-93
1.38767	-90
1.39133	-88
1.39500	-87
1.39867	-87
1.40233	-85
1.40600	-86
1.40967	-90
1.41333	-96
1.41700	-96
1.42067	-92
1.42433	-88
1.42800	-88
1.43167	-87
1.43533	-83
1.43900	-71
1.44267	-22
1.44633	185
1.45000	780
1.45367	1946
1.45733	3767
1.46100	5953
1.46467	8039
1.46833	9714
1.47200	10840
1.47567	11329
1.47933	11085
1.48300	10095
1.48667	8532
1.49033	6704
1.49400	4927
1.49767	3400
1.50133	2199
1.50500	1312
1.50867	681
1.51233	247
1.51600	-45
1.51967	-238
1.52333	-360
1.52700	-429
1.53067	-467
1.53433	-482
1.53800	-476
1.54167	-426
1.54533	-291
1.54900	-37
1.55267	315
1.55633	697
1.56000	1041
1.56367	1306
1.56733	1471
1.57100	1501
1.57467	1386
1.57833	1149
1.58200	852
1.58567	557
1.58933	304
1.59300	106
1.59667	-40
1.60033	-144
1.60400	-213
1.60767	-258
1.61133	-285
1.61500	-297
1.61867	-306
1.62233	-313
1.62600	-312
1.62967	-305
1.63333	-296
1.63700	-290
1.64067	-285
1.64433	-281
1.64800	-276
1.65167	-270
1.65533	-271
1.65900	-274
1.66267	-283
1.66633	-292
1.67000	-293
1.67367	-292
1.67733	-289
1.68100	-287
1.68467	-282
1.68833	-277
1.69200	-270
1.69567	-264
1.69933	-260
1.70300	-254
1.70667	-249
1.71033	-246
1.71400	-243
1.71767	-235
1.72133	-226
1.72500	-225
1.72867	-222
1.73233	-218
1.73600	-220
1.73967	-224
1.74333	-228
1.74700	-231
1.75067	-232
1.75433	-229
1.75800	-225
1.76167	-222
1.76533	-221
1.76900	-221
1.77267	-220
1.77633	-219
1.78000	-215
1.78367	-210
1.78733	-207
1.79100	-207
1.79467	-211
1.79833	-210
1.80200	-207
1.80567	-209
1.80933	-213
1.81300	-214
1.81667	-218
1.82033	-226
1.82400	-227
1.82767	-220
1.83133	-213
1.83500	-205
1.83867	-204
1.84233	-212
1.84600	-223
1.84967	-230
1.85333	-226
1.85700	-217
1.86067	-215
1.86433	-216
1.86800	-214
1.87167	-212
1.87533	-213
1.87900	-215
1.88267	-220
1.88633	-218
1.89000	-211
1.89367	-204
1.89733	-200
1.90100	-197
1.90467	-195
1.90833	-194
1.91200	-191
1.91567	-185
1.91933	-175
1.92300	-169
1.92667	-167
1.93033	-171
1.93400	-182
1.93767	-193
1.94133	-200
1.94500	-204
1.94867	-207
1.95233	-200
1.95600	-126
1.95967	340
1.96333	2662
1.96700	11500
1.97067	37267
1.97433	95348
1.97800	197475
1.98167	340076
1.98533	502021
1.98900	654573
1.99267	772413
1.99633	837996
2.00000	842893
2.00367	789398
2.00733	690703
2.01100	567563
2.01467	441336
2.01833	327913
2.02200	235276
2.02567	164709
2.02933	113573
2.03300	77783
2.03667	53299
2.04033	36787
2.04400	25725
2.04767	18317
2.05133	13330
2.05500	9942
2.05867	7613
2.06233	5981
2.06600	4802
2.06967	3932
2.07333	3275
2.07700	2773
2.08067	2380
2.08433	2072
2.08800	1832
2.09167	1643
2.09533	1487
2.09900	1349
2.10267	1228
2.10633	1122
2.11000	1028
2.11367	941
2.11733	863
2.12100	800
2.12467	745
2.12833	692
2.13200	648
2.13567	609
2.13933	572
2.14300	540
2.14667	511
2.15033	489
2.15400	473
2.15767	462
2.16133	445
2.16500	423
2.16867	399
2.17233	373
2.17600	343
2.17967	315
2.18333	295
2.18700	283
2.19067	280
2.19433	274
2.19800	260
2.20167	241
2.20533	224
2.20900	208
2.21267	198
2.21633	191
2.22000	183
2.22367	176
2.22733	170
2.23100	163
2.23467	152
2.23833	144
2.24200	136
2.24567	127
2.24933	117
2.25300	115
2.25667	119
2.26033	120
2.26400	120
2.26767	121
2.27133	120
2.27500	116
2.27867	108
2.28233	98
2.28600	92
2.28967	91
2.29333	90
2.29700	83
2.30067	72
2.30433	61
2.30800	54
2.31167	55
2.31533	57
2.31900	60
2.32267	64
2.32633	73
2.33000	86
2.33367	90
2.33733	80
2.34100	66
2.34467	54
2.34833	48
2.35200	39
2.35567	31
2.35933	31
2.36300	34
2.36667	35
2.37033	36
2.37400	36
2.37767	33
2.38133	30
2.38500	27
2.38867	29
2.39233	29
2.39600	21
2.39967	12
2.40333	6
2.40700	5
2.41067	5
2.41433	9
2.41800	18
2.42167	27
2.42533	33
2.42900	34
2.43267	28
2.43633	22
2.44000	21
2.44367	26
2.44733	29
2.45100	25
2.45467	20
2.45833	15
2.46200	12
2.46567	15
2.46933	22
2.47300	28
2.47667	29
2.48033	27
2.48400	23
2.48767	14
2.49133	5
2.49500	-3
2.49867	-5
2.50233	-3
2.50600	1
2.50967	5
2.51333	13
2.51700	23
2.52067	30
2.52433	31
2.52800	30
2.53167	25
2.53533	16
2.53900	7
2.54267	3
2.54633	6
2.55000	8
2.55367	1
2.55733	-9
2.56100	-14
2.56467	-15
2.56833	-15
2.57200	-14
2.57567	-12
2.57933	-6
2.58300	-1
2.58667	0
2.59033	-3
2.59400	-9
2.59767	-10
2.60133	-10
2.60500	-8
2.60867	-2
2.61233	5
2.61600	8
2.61967	8
2.62333	7
2.62700	4
2.63067	-5
2.63433	-13
2.63800	-20
2.64167	-22
2.64533	-22
2.64900	-22
2.65267	-25
2.65633	-29
2.66000	-32
2.66367	-34
2.66733	-33
2.67100	-25
2.67467	-14
2.67833	-7
2.68200	-4
2.68567	-3
2.68933	-1
2.69300	1
2.69667	-3
2.70033	-9
2.70400	-16
2.70767	-24
2.71133	-30
2.71500	-31
2.71867	-31
2.72233	-26
2.72600	-16
2.72967	-5
2.73333	1
2.73700	2
2.74067	5
2.74433	7
2.74800	3
2.75167	-6
2.75533	-13
2.75900	-14
2.76267	-13
2.76633	-6
2.77000	2
2.77367	9
2.77733	17
2.78100	20
2.78467	13
2.78833	3
2.79200	-7
2.79567	-17
2.79933	-22
2.80300	-20
2.80667	-14
2.81033	-4
2.81400	7
2.81767	16
2.82133	21
2.82500	19
2.82867	13
2.83233	9
2.83600	8
2.83967	8
2.84333	6
2.84700	3
2.85067	2
2.85433	2
2.85800	1
2.86167	-3
2.86533	-8
2.86900	-12
2.87267	-13
2.87633	-13
2.88000	-12
2.88367	-6
2.88733	3
2.89100	7
2.89467	8
2.89833	7
2.90200	6
2.90567	4
2.90933	1
2.91300	1
2.91667	6
2.92033	17
2.92400	23
2.92767	23
2.93133	17
2.93500	4
2.93867	-8
2.94233	-13
2.94600	-10
2.94967	-1
2.95333	13
2.95700	26
2.96067	32
2.96433	28
2.96800	17
2.97167	8
2.97533	3
2.97900	1
2.98267	-1
2.98633	-4
2.99000	-4
2.99367	-4
2.99733	3
3.00100	17
3.00467	24
3.00833	23
3.01200	21
3.01567	15
3.01933	7
3.02300	-2
3.02667	-1
3.03033	8
3.03400	14
3.03767	13
3.04133	13
3.04500	14
3.04867	10
3.05233	7
3.05600	5
3.05967	6
3.06333	7
3.06700	5
3.07067	6
3.07433	10
3.07800	17
3.08167	23
3.08533	23
3.08900	20
3.09267	11
3.09633	4
3.10000	1
3.10367	-4
3.10733	-11
3.11100	-12
3.11467	-9
3.11833	-7
3.12200	-7
3.12567	-10
3.12933	-13
3.13300	-10
3.13667	-7
3.14033	-3
3.14400	-3
3.14767	-7
3.15133	-8
3.15500	-7
3.15867	-8
3.16233	-10
3.16600	-10
3.16967	-5
3.17333	3
3.17700	8
3.18067	11
3.18433	7
3.18800	-5
3.19167	-16
3.19533	-22
3.19900	-25
3.20267	-24
3.20633	-18
3.21000	-8
3.21367	2
3.21733	7
3.22100	5
3.22467	1
3.22833	-4
3.23200	-4
3.23567	-7
3.23933	-13
3.24300	-16
3.24667	-16
3.25033	-11
3.25400	-8
3.25767	-10
3.26133	-12
3.26500	-13
3.26867	-10
3.27233	-5
3.27600	2
3.27967	6
3.28333	8
3.28700	8
3.29067	11
3.29433	15
3.29800	15
3.30167	9
3.30533	3
3.30900	2
3.31267	2
3.31633	3
3.32000	6
3.32367	5
3.32733	5
3.33100	7
3.33467	11
3.33833	12
3.34200	8
3.34567	2
3.34933	-7
3.35300	-16
3.35667	-16
3.36033	-12
3.36400	-5
3.36767	-1
3.37133	-1
3.37500	-4
3.37867	-6
3.38233	-1
3.38600	7
3.38967	9
3.39333	5
3.39700	-3
3.40067	-12
3.40433	-20
3.40800	-23
3.41167	-19
3.41533	-10
3.41900	0
3.42267	3
3.42633	1
3.43000	1
3.43367	2
3.43733	4
3.44100	2
3.44467	1
3.44833	3
3.45200	9
3.45567	11
3.45933	8
3.46300	3
3.46667	-2
3.47033	-4
3.47400	-8
3.47767	-14
3.48133	-18
3.48500	-21
3.48867	-18
3.49233	-17
3.49600	-18
3.49967	-17
3.50333	-16
3.50700	-15
3.51067	-16
3.51433	-15
3.51800	-16
3.52167	-19
3.52533	-23
3.52900	-20
3.53267	-18
3.53633	-13
3.54000	-6
3.54367	1
3.54733	7
3.55100	11
3.55467	13
3.55833	15
3.56200	12
3.56567	5
3.56933	-3
3.57300	-14
3.57667	-22
3.58033	-25
3.58400	-27
3.58767	-27
3.59133	-25
3.59500	-27
3.59867	-31
3.60233	-32
3.60600	-35
3.60967	-40
3.61333	-43
3.61700	-40
3.62067	-35
3.62433	-29
3.62800	-23
3.63167	-17
3.63533	-13
3.63900	-9
3.64267	-9
3.64633	-8
3.65000	-6
3.65367	-4
3.65733	-4
3.66100	-6
3.66467	-3
3.66833	-3
3.67200	-6
3.67567	-10
3.67933	-15
3.68300	-20
3.68667	-20
3.69033	-16
3.69400	-11
3.69767	-7
3.70133	-3
3.70500	0
3.70867	-3
3.71233	-8
3.71600	-13
3.71967	-18
3.72333	-24
3.72700	-26
3.73067	-18
3.73433	-4
3.73800	6
3.74167	10
3.74533	6
3.74900	0
3.75267	-8
3.75633	-16
3.76000	-20
3.76367	-23
3.76733	-25
3.77100	-22
3.77467	-17
3.77833	-12
3.78200	-10
3.78567	-7
3.78933	-7
3.79300	-15
3.79667	-27
3.80033	-36
3.80400	-44
3.80767	-47
3.81133	-46
3.81500	-46
3.81867	-43
3.82233	-38
3.82600	-33
3.82967	-32
3.83333	-32
3.83700	-33
3.84067	-35
3.84433	-39
3.84800	-44
3.85167	-47
3.85533	-49
3.85900	-49
3.86267	-49
3.86633	-45
3.87000	-36
3.87367	-30
3.87733	-36
3.88100	-48
3.88467	-54
3.88833	-53
3.89200	-53
3.89567	-51
3.89933	-47
3.90300	-43
3.90667	-34
3.91033	-24
3.91400	-18
3.91767	-20
3.92133	-28
3.92500	-38
3.92867	-49
3.93233	-55
3.93600	-49
3.93967	-39
3.94333	-29
3.94700	-24
3.95067	-21
3.95433	-18
3.95800	-15
3.96167	-13
3.96533	-19
3.96900	-26
3.97267	-28
3.97633	-31
3.98000	-36
3.98367	-44
3.98733	-49
3.99100	-48
3.99467	-43
3.99833	-41

[Chromatogram (Ch2)]
Interval(msec)	220
# of Points	1091
Start Time(min)	0.002
End Time(min)	3.998
R.Time (min)	Intensity
0.00167	-1
0.00533	-1
0.00900	-1
0.01267	-2
0.01633	-2
0.02000	-2
0.02367	-1
0.02733	-1
0.03100	-1
0.03467	-1
0.03833	-1
0.04200	-0
0.04567	0
0.04933	0
0.05300	1
0.05667	1
0.06033	1
0.06400	1
0.06767	1
0.07133	0
0.07500	0
0.07867	0
0.08233	0
0.08600	0
0.08967	0
0.09333	0
0.09700	0
0.10067	-0
0.10433	-0
0.10800	-1
0.11167	-1
0.11533	-1
0.11900	-1
0.12267	-0
0.12633	-0
0.13000	0
0.13367	1
0.13733	1
0.14100	1
0.14467	1
0.14833	1
0.15200	1
0.15567	1
0.15933	1
0.16300	2
0.16667	2
0.17033	2
0.17400	2
0.17767	2
0.18133	2
0.18500	3
0.18867	3
0.19233	3
0.19600	3
0.19967	3
0.20333	3
0.20700	3
0.21067	3
0.21433	3
0.21800	3
0.22167	3
0.22533	3
0.22900	3
0.23267	3
0.23633	3
0.24000	3
0.24367	3
0.24733	2
0.25100	2
0.25467	1
0.25833	1
0.26200	0
0.26567	-1
0.26933	-1
0.27300	-2
0.27667	-2
0.28033	-2
0.28400	-2
0.28767	-2
0.29133	-2
0.29500	-2
0.29867	-2
0.30233	-2
0.30600	-2
0.30967	-2
0.31333	-1
0.31700	-1
0.32067	-1
0.32433	-0
0.32800	0
0.33167	1
0.33533	1
0.33900	1
0.34267	1
0.34633	1
0.35000	1
0.35367	1
0.35733	1
0.36100	1
0.36467	1
0.36833	1
0.37200	1
0.37567	1
0.37933	1
0.38300	1
0.38667	1
0.39033	1
0.39400	1
0.39767	0
0.40133	0
0.40500	0
0.40867	-0
0.41233	-1
0.41600	-1
0.41967	-1
0.42333	-1
0.42700	-1
0.43067	-1
0.43433	-1
0.43800	-1
0.44167	-1
0.44533	-1
0.44900	-1
0.45267	-0
0.45633	-0
0.46000	-0
0.46367	-0
0.46733	-0
0.47100	0
0.47467	0
0.47833	1
0.48200	1
0.48567	1
0.48933	1
0.49300	1
0.49667	1
0.50033	1
0.50400	1
0.50767	1
0.51133	1
0.51500	1
0.51867	1
0.52233	1
0.52600	1
0.52967	1
0.53333	1
0.53700	1
0.54067	0
0.54433	-0
0.54800	-1
0.55167	-1
0.55533	-2
0.55900	-2
0.56267	-3
0.56633	-3
0.57000	-3
0.57367	-3
0.57733	-3
0.58100	-3
0.58467	-4
0.58833	-4
0.59200	-4
0.59567	-4
0.59933	-4
0.60300	-4
0.60667	-3
0.61033	-3
0.61400	-3
0.61767	-3
0.62133	-2
0.62500	-2
0.62867	-2
0.63233	-2
0.63600	-1
0.63967	-1
0.64333	-1
0.64700	-1
0.65067	-0
0.65433	-0
0.65800	0
0.66167	0
0.66533	0
0.66900	0
0.67267	0
0.67633	0
0.68000	0
0.68367	0
0.68733	0
0.69100	-0
0.69467	-0
0.69833	-1
0.70200	-1
0.70567	-1
0.70933	-1
0.71300	-1
0.71667	-1
0.72033	-1
0.72400	-1
0.72767	-1
0.73133	-1
0.73500	-1
0.73867	-1
0.74233	-1
0.74600	-1
0.74967	-1
0.75333	-2
0.75700	-2
0.76067	-2
0.76433	-2
0.76800	-2
0.77167	-2
0.77533	-2
0.77900	-2
0.78267	-2
0.78633	-2
0.79000	-2
0.79367	-1
0.79733	-1
0.80100	-1
0.80467	-1
0.80833	-1
0.81200	-1
0.81567	-1
0.81933	-1
0.82300	-1
0.82667	-0
0.83033	-0
0.83400	-0
0.83767	0
0.84133	0
0.84500	0
0.84867	-0
0.85233	-0
0.85600	-0
0.85967	-1
0.86333	-1
0.86700	-1
0.87067	-0
0.87433	-0
0.87800	-0
0.88167	0
0.88533	0
0.88900	1
0.89267	1
0.89633	1
0.90000	1
0.90367	1
0.90733	1
0.91100	1
0.91467	1
0.91833	0
0.92200	0
0.92567	0
0.92933	0
0.93300	0
0.93667	0
0.94033	0
0.94400	0
0.94767	0
0.95133	0
0.95500	0
0.95867	0
0.96233	-0
0.96600	-0
0.96967	-0
0.97333	-1
0.97700	-1
0.98067	-1
0.98433	-1
0.98800	-1
0.99167	-1
0.99533	-2
0.99900	-2
1.00267	-2
1.00633	-3
1.01000	-3
1.01367	-3
1.01733	-3
1.02100	-3
1.02467	-3
1.02833	-3
1.03200	-3
1.03567	-3
1.03933	-3
1.04300	-3
1.04667	-3
1.05033	-3
1.05400	-3
1.05767	-3
1.06133	-3
1.06500	-3
1.06867	-3
1.07233	-3
1.07600	-3
1.07967	-3
1.08333	-3
1.08700	-3
1.09067	-4
1.09433	-4
1.09800	-4
1.10167	-4
1.10533	-4
1.10900	-4
1.11267	-4
1.11633	-5
1.12000	-5
1.12367	-5
1.12733	-5
1.13100	-4
1.13467	-4
1.13833	-4
1.14200	-3
1.14567	-3
1.14933	-3
1.15300	-3
1.15667	-2
1.16033	-2
1.16400	-2
1.16767	-2
1.17133	-2
1.17500	-2
1.17867	-2
1.18233	-1
1.18600	-1
1.18967	-1
1.19333	-1
1.19700	-1
1.20067	-0
1.20433	-0
1.20800	-0
1.21167	0
1.21533	0
1.21900	0
1.22267	-0
1.22633	-1
1.23000	-1
1.23367	-1
1.23733	-1
1.24100	-2
1.24467	-2
1.24833	-1
1.25200	-1
1.25567	-1
1.25933	-1
1.26300	-1
1.26667	-1
1.27033	-0
1.27400	-0
1.27767	-0
1.28133	-0
1.28500	0
1.28867	0
1.29233	0
1.29600	0
1.29967	0
1.30333	1
1.30700	1
1.31067	0
1.31433	0
1.31800	-0
1.32167	-0
1.32533	-0
1.32900	-0
1.33267	-0
1.33633	-0
1.34000	-0
1.34367	-0
1.34733	-0
1.35100	-0
1.35467	-1
1.35833	-1
1.36200	-1
1.36567	-1
1.36933	-1
1.37300	-1
1.37667	-1
1.38033	-1
1.38400	-1
1.38767	-1
1.39133	-1
1.39500	-1
1.39867	-2
1.40233	-2
1.40600	-2
1.40967	-2
1.41333	-2
1.41700	-2
1.42067	-2
1.42433	-2
1.42800	-3
1.43167	-3
1.43533	-4
1.43900	-4
1.44267	-5
1.44633	-5
1.45000	-5
1.45367	-6
1.45733	-6
1.46100	-6
1.46467	-6
1.46833	-6
1.47200	-6
1.47567	-6
1.47933	-6
1.48300	-6
1.48667	-5
1.49033	-5
1.49400	-5
1.49767	-5
1.50133	-5
1.50500	-5
1.50867	-5
1.51233	-4
1.51600	-4
1.51967	-4
1.52333	-4
1.52700	-4
1.53067	-3
1.53433	-3
1.53800	-3
1.54167	-3
1.54533	-3
1.54900	-3
1.55267	-3
1.55633	-4
1.56000	-4
1.56367	-4
1.56733	-4
1.57100	-4
1.57467	-3
1.57833	-3
1.58200	-3
1.58567	-3
1.58933	-3
1.59300	-3
1.59667	-3
1.60033	-4
1.60400	-5
1.60767	-7
1.61133	-9
1.61500	-11
1.61867	-13
1.62233	-16
1.62600	-19
1.62967	-22
1.63333	-26
1.63700	-29
1.64067	-32
1.64433	-36
1.64800	-40
1.65167	-43
1.65533	-47
1.65900	-50
1.66267	-54
1.66633	-57
1.67000	-61
1.67367	-65
1.67733	-70
1.68100	-74
1.68467	-78
1.68833	-82
1.69200	-86
1.69567	-90
1.69933	-92
1.70300	-95
1.70667	-97
1.71033	-98
1.71400	-100
1.71767	-102
1.72133	-104
1.72500	-105
1.72867	-106
1.73233	-107
1.73600	-108
1.73967	-109
1.74333	-109
1.74700	-110
1.75067	-110
1.75433	-111
1.75800	-111
1.76167	-111
1.76533	-111
1.76900	-112
1.77267	-112
1.77633	-112
1.78000	-113
1.78367	-112
1.78733	-112
1.79100	-112
1.79467	-112
1.79833	-111
1.80200	-111
1.80567	-110
1.80933	-110
1.81300	-110
1.81667	-111
1.82033	-112
1.82400	-113
1.82767	-113
1.83133	-114
1.83500	-114
1.83867	-114
1.84233	-114
1.84600	-114
1.84967	-114
1.85333	-114
1.85700	-113
1.86067	-113
1.86433	-113
1.86800	-113
1.87167	-114
1.87533	-113
1.87900	-113
1.88267	-113
1.88633	-112
1.89000	-112
1.89367	-111
1.89733	-111
1.90100	-111
1.90467	-111
1.90833	-111
1.91200	-111
1.91567	-111
1.91933	-111
1.92300	-111
1.92667	-111
1.93033	-110
1.93400	-110
1.93767	-110
1.94133	-109
1.94500	-109
1.94867	-108
1.95233	-108
1.95600	-108
1.95967	-108
1.96333	-107
1.96700	-107
1.97067	-107
1.97433	-107
1.97800	-107
1.98167	-107
1.98533	-107
1.98900	-107
1.99267	-107
1.99633	-107
2.00000	-107
2.00367	-107
2.00733	-107
2.01100	-107
2.01467	-107
2.01833	-106
2.02200	-106
2.02567	-106
2.02933	-105
2.03300	-105
2.03667	-105
2.04033	-105
2.04400	-105
2.04767	-105
2.05133	-105
2.05500	-104
2.05867	-103
2.06233	-102
2.06600	-101
2.06967	-101
2.07333	-100
2.07700	-100
2.08067	-99
2.08433	-99
2.08800	-99
2.09167	-99
2.09533	-99
2.09900	-98
2.10267	-98
2.10633	-97
2.11000	-97
2.11367	-97
2.11733	-98
2.12100	-97
2.12467	-97
2.12833	-96
2.13200	-95
2.13567	-95
2.13933	-94
2.14300	-94
2.14667	-94
2.15033	-94
2.15400	-94
2.15767	-95
2.16133	-95
2.16500	-95
2.16867	-95
2.17233	-95
2.17600	-95
2.17967	-94
2.18333	-93
2.18700	-92
2.19067	-92
2.19433	-91
2.19800	-91
2.20167	-90
2.20533	-90
2.20900	-89
2.21267	-90
2.21633	-90
2.22000	-89
2.22367	-89
2.22733	-88
2.23100	-88
2.23467	-88
2.23833	-88
2.24200	-88
2.24567	-88
2.24933	-88
2.25300	-87
2.25667	-87
2.26033	-86
2.26400	-85
2.26767	-84
2.27133	-84
2.27500	-83
2.27867	-82
2.28233	-82
2.28600	-81
2.28967	-81
2.29333	-81
2.29700	-81
2.30067	-80
2.30433	-80
2.30800	-80
2.31167	-80
2.31533	-80
2.31900	-80
2.32267	-79
2.32633	-79
2.33000	-79
2.33367	-79
2.33733	-78
2.34100	-78
2.34467	-77
2.34833	-76
2.35200	-75
2.35567	-74
2.35933	-73
2.36300	-72
2.36667	-71
2.37033	-70
2.37400	-68
2.37767	-65
2.38133	-62
2.38500	-59
2.38867	-54
2.39233	-50
2.39600	-46
2.39967	-41
2.40333	-36
2.40700	-31
2.41067	-27
2.41433	-23
2.41800	-20
2.42167	-17
2.42533	-14
2.42900	-13
2.43267	-11
2.43633	-10
2.44000	-9
2.44367	-8
2.44733	-7
2.45100	-6
2.45467	-5
2.45833	-4
2.46200	-3
2.46567	-3
2.46933	-2
2.47300	-1
2.47667	-0
2.48033	1
2.48400	2
2.48767	3
2.49133	4
2.49500	5
2.49867	5
2.50233	6
2.50600	7
2.50967	8
2.51333	9
2.51700	10
2.52067	11
2.52433	11
2.52800	12
2.53167	12
2.53533	12
2.53900	13
2.54267	13
2.54633	13
2.55000	14
2.55367	14
2.55733	13
2.56100	13
2.56467	13
2.56833	13
2.57200	13
2.57567	13
2.57933	14
2.58300	15
2.58667	15
2.59033	16
2.59400	17
2.59767	17
2.60133	17
2.60500	18
2.60867	18
2.61233	18
2.61600	18
2.61967	19
2.62333	19
2.62700	19
2.63067	19
2.63433	19
2.63800	20
2.64167	20
2.64533	20
2.64900	20
2.65267	21
2.65633	21
2.66000	21
2.66367	21
2.66733	21
2.67100	22
2.67467	22
2.67833	22
2.68200	23
2.68567	23
2.68933	24
2.69300	24
2.69667	24
2.70033	24
2.70400	24
2.70767	23
2.71133	23
2.71500	23
2.71867	24
2.72233	24
2.72600	24
2.72967	25
2.73333	25
2.73700	25
2.74067	25
2.74433	24
2.74800	24
2.75167	24
2.75533	24
2.75900	25
2.76267	25
2.76633	25
2.77000	26
2.77367	26
2.77733	27
2.78100	27
2.78467	27
2.78833	28
2.79200	28
2.79567	28
2.79933	28
2.80300	28
2.80667	28
2.81033	28
2.81400	27
2.81767	26
2.82133	26
2.82500	25
2.82867	25
2.83233	24
2.83600	24
2.83967	23
2.84333	22
2.84700	20
2.85067	16
2.85433	11
2.85800	2
2.86167	-10
2.86533	-27
2.86900	-47
2.87267	-72
2.87633	-101
2.88000	-135
2.88367	-172
2.88733	-214
2.89100	-258
2.89467	-306
2.89833	-356
2.90200	-409
2.90567	-463
2.90933	-518
2.91300	-573
2.91667	-628
2.92033	-683
2.92400	-737
2.92767	-790
2.93133	-842
2.93500	-894
2.93867	-951
2.94233	-1010
2.94600	-1061
2.94967	-1093
2.95333	-1101
2.95700	-1083
2.96067	-1042
2.96433	-983
2.96800	-912
2.97167	-834
2.97533	-753
2.97900	-673
2.98267	-596
2.98633	-524
2.99000	-457
2.99367	-397
2.99733	-342
3.00100	-294
3.00467	-252
3.00833	-215
3.01200	-182
3.01567	-154
3.01933	-130
3.02300	-109
3.02667	-91
3.03033	-76
3.03400	-62
3.03767	-51
3.04133	-41
3.04500	-33
3.04867	-26
3.05233	-20
3.05600	-15
3.05967	-11
3.06333	-7
3.06700	-4
3.07067	-2
3.07433	1
3.07800	2
3.08167	4
3.08533	5
3.08900	7
3.09267	8
3.09633	9
3.10000	10
3.10367	11
3.10733	12
3.11100	13
3.11467	14
3.11833	15
3.12200	16
3.12567	17
3.12933	17
3.13300	18
3.13667	18
3.14033	18
3.14400	18
3.14767	19
3.15133	19
3.15500	19
3.15867	19
3.16233	20
3.16600	20
3.16967	20
3.17333	20
3.17700	20
3.18067	20
3.18433	20
3.18800	20
3.19167	20
3.19533	20
3.19900	20
3.20267	20
3.20633	20
3.21000	21
3.21367	21
3.21733	21
3.22100	21
3.22467	21
3.22833	21
3.23200	21
3.23567	21
3.23933	21
3.24300	21
3.24667	22
3.25033	22
3.25400	22
3.25767	22
3.26133	23
3.26500	23
3.26867	23
3.27233	23
3.27600	23
3.27967	24
3.28333	24
3.28700	24
3.29067	24
3.29433	24
3.29800	24
3.30167	24
3.30533	24
3.30900	24
3.31267	24
3.31633	24
3.32000	24
3.32367	24
3.32733	25
3.33100	25
3.33467	25
3.33833	25
3.34200	25
3.34567	25
3.34933	25
3.35300	25
3.35667	24
3.36033	24
3.36400	24
3.36767	24
3.37133	25
3.37500	25
3.37867	25
3.38233	25
3.38600	25
3.38967	26
3.39333	26
3.39700	26
3.40067	26
3.40433	26
3.40800	27
3.41167	27
3.41533	27
3.41900	27
3.42267	28
3.42633	28
3.43000	28
3.43367	29
3.43733	29
3.44100	29
3.44467	30
3.44833	30
3.45200	30
3.45567	30
3.45933	30
3.46300	30
3.46667	29
3.47033	29
3.47400	29
3.47767	29
3.48133	28
3.48500	28
3.48867	28
3.49233	28
3.49600	28
3.49967	28
3.50333	28
3.50700	28
3.51067	28
3.51433	28
3.51800	28
3.52167	28
3.52533	28
3.52900	27
3.53267	27
3.53633	27
3.54000	27
3.54367	27
3.54733	28
3.55100	28
3.55467	28
3.55833	28
3.56200	28
3.56567	28
3.56933	28
3.57300	28
3.57667	27
3.58033	27
3.58400	27
3.58767	27
3.59133	27
3.59500	27
3.59867	27
3.60233	27
3.60600	27
3.60967	27
3.61333	27
3.61700	27
3.62067	27
3.62433	27
3.62800	27
3.63167	27
3.63533	27
3.63900	27
3.64267	27
3.64633	27
3.65000	27
3.65367	27
3.65733	27
3.66100	27
3.66467	28
3.66833	28
3.67200	28
3.67567	28
3.67933	28
3.68300	28
3.68667	28
3.69033	27
3.69400	27
3.69767	27
3.70133	27
3.70500	27
3.70867	27
3.71233	27
3.71600	27
3.71967	27
3.72333	27
3.72700	27
3.73067	27
3.73433	27
3.73800	27
3.74167	27
3.74533	26
3.74900	26
3.75267	26
3.75633	26
3.76000	26
3.76367	26
3.76733	26
3.77100	26
3.77467	26
3.77833	26
3.78200	26
3.78567	26
3.78933	26
3.79300	26
3.79667	26
3.80033	26
3.80400	27
3.80767	27
3.81133	27
3.81500	27
3.81867	26
3.82233	26
3.82600	26
3.82967	26
3.83333	26
3.83700	26
3.84067	26
3.84433	26
3.84800	26
3.85167	26
3.85533	26
3.85900	27
3.86267	27
3.86633	27
3.87000	27
3.87367	27
3.87733	27
3.88100	27
3.88467	27
3.88833	27
3.89200	27
3.89567	27
3.89933	27
3.90300	27
3.90667	27
3.91033	27
3.91400	27
3.91767	27
3.92133	27
3.92500	27
3.92867	27
3.93233	27
3.93600	27
3.93967	27
3.94333	27
3.94700	27
3.95067	27
3.95433	27
3.95800	27
3.96167	27
3.96533	26
3.96900	26
3.97267	26
3.97633	26
3.98000	26
3.98367	26
3.98733	26
3.99100	26
3.99467	25
3.99833	25

[Chromatogram (Ch3)]
Interval(msec)	220
# of Points	1091
Start Time(min)	0.002
End Time(min)	3.998
R.Time (min)	Intensity
0.00167	-0
0.00533	1
0.00900	3
0.01267	3
0.01633	6
0.02000	7
0.02367	7
0.02733	6
0.03100	7
0.03467	8
0.03833	7
0.04200	7
0.04567	8
0.04933	7
0.05300	6
0.05667	5
0.06033	5
0.06400	4
0.06767	4
0.07133	4
0.07500	4
0.07867	4
0.08233	5
0.08600	7
0.08967	7
0.09333	6
0.09700	3
0.10067	2
0.10433	4
0.10800	8
0.11167	9
0.11533	10
0.11900	10
0.12267	10
0.12633	10
0.13000	10
0.13367	10
0.13733	8
0.14100	8
0.14467	9
0.14833	10
0.15200	9
0.15567	9
0.15933	10
0.16300	10
0.16667	9
0.17033	10
0.17400	12
0.17767	14
0.18133	11
0.18500	8
0.18867	7
0.19233	6
0.19600	6
0.19967	5
0.20333	4
0.20700	4
0.21067	2
0.21433	1
0.21800	1
0.22167	2
0.22533	2
0.22900	2
0.23267	2
0.23633	2
0.24000	2
0.24367	3
0.24733	3
0.25100	3
0.25467	3
0.25833	4
0.26200	4
0.26567	4
0.26933	5
0.27300	5
0.27667	3
0.28033	4
0.28400	5
0.28767	4
0.29133	5
0.29500	6
0.29867	6
0.30233	6
0.30600	4
0.30967	4
0.31333	3
0.31700	4
0.32067	4
0.32433	5
0.32800	8
0.33167	9
0.33533	8
0.33900	6
0.34267	6
0.34633	6
0.35000	8
0.35367	9
0.35733	8
0.36100	7
0.36467	8
0.36833	9
0.37200	9
0.37567	9
0.37933	8
0.38300	6
0.38667	3
0.39033	2
0.39400	1
0.39767	3
0.40133	4
0.40500	4
0.40867	5
0.41233	4
0.41600	3
0.41967	4
0.42333	4
0.42700	6
0.43067	8
0.43433	10
0.43800	10
0.44167	9
0.44533	9
0.44900	9
0.45267	10
0.45633	12
0.46000	11
0.46367	9
0.46733	10
0.47100	9
0.47467	9
0.47833	10
0.48200	9
0.48567	9
0.48933	10
0.49300	10
0.49667	11
0.50033	10
0.50400	8
0.50767	7
0.51133	7
0.51500	9
0.51867	11
0.52233	10
0.52600	8
0.52967	5
0.53333	4
0.53700	4
0.54067	6
0.54433	7
0.54800	8
0.55167	9
0.55533	9
0.55900	9
0.56267	9
0.56633	10
0.57000	12
0.57367	11
0.57733	8
0.58100	7
0.58467	7
0.58833	5
0.59200	2
0.59567	2
0.59933	4
0.60300	5
0.60667	9
0.61033	11
0.61400	14
0.61767	15
0.62133	15
0.62500	14
0.62867	14
0.63233	13
0.63600	12
0.63967	12
0.64333	12
0.64700	12
0.65067	12
0.65433	11
0.65800	11
0.66167	13
0.66533	15
0.66900	17
0.67267	18
0.67633	16
0.68000	16
0.68367	15
0.68733	15
0.69100	16
0.69467	18
0.69833	18
0.70200	17
0.70567	18
0.70933	17
0.71300	16
0.71667	14
0.72033	12
0.72400	12
0.72767	14
0.73133	13
0.73500	13
0.73867	13
0.74233	12
0.74600	11
0.74967	11
0.75333	13
0.75700	14
0.76067	13
0.76433	12
0.76800	12
0.77167	13
0.77533	14
0.77900	16
0.78267	17
0.78633	15
0.79000	14
0.79367	13
0.79733	12
0.80100	12
0.80467	14
0.80833	15
0.81200	15
0.81567	15
0.81933	16
0.82300	18
0.82667	20
0.83033	20
0.83400	20
0.83767	20
0.84133	18
0.84500	16
0.84867	17
0.85233	17
0.85600	18
0.85967	19
0.86333	19
0.86700	19
0.87067	18
0.87433	17
0.87800	16
0.88167	16
0.88533	15
0.88900	17
0.89267	19
0.89633	21
0.90000	21
0.90367	20
0.90733	21
0.91100	21
0.91467	22
0.91833	22
0.92200	21
0.92567	20
0.92933	18
0.93300	20
0.93667	20
0.94033	20
0.94400	22
0.94767	23
0.95133	24
0.95500	21
0.95867	21
0.96233	19
0.96600	19
0.96967	19
0.97333	19
0.97700	20
0.98067	20
0.98433	20
0.98800	20
0.99167	21
0.99533	22
0.99900	23
1.00267	24
1.00633	22
1.01000	20
1.01367	19
1.01733	21
1.02100	23
1.02467	24
1.02833	24
1.03200	24
1.03567	23
1.03933	21
1.04300	20
1.04667	21
1.05033	24
1.05400	26
1.05767	25
1.06133	25
1.06500	27
1.06867	28
1.07233	28
1.07600	26
1.07967	26
1.08333	27
1.08700	28
1.09067	29
1.09433	29
1.09800	27
1.10167	23
1.10533	21
1.10900	23
1.11267	23
1.11633	22
1.12000	20
1.12367	20
1.12733	22
1.13100	25
1.13467	25
1.13833	23
1.14200	21
1.14567	22
1.14933	21
1.15300	22
1.15667	22
1.16033	22
1.16400	23
1.16767	24
1.17133	25
1.17500	24
1.17867	21
1.18233	22
1.18600	25
1.18967	26
1.19333	27
1.19700	28
1.20067	29
1.20433	29
1.20800	28
1.21167	27
1.21533	25
1.21900	22
1.22267	20
1.22633	21
1.23000	23
1.23367	24
1.23733	24
1.24100	22
1.24467	24
1.24833	25
1.25200	25
1.25567	24
1.25933	25
1.26300	26
1.26667	27
1.27033	29
1.27400	29
1.27767	31
1.28133	33
1.28500	33
1.28867	31
1.29233	28
1.29600	28
1.29967	29
1.30333	30
1.30700	30
1.31067	30
1.31433	28
1.31800	27
1.32167	27
1.32533	27
1.32900	28
1.33267	27
1.33633	26
1.34000	23
1.34367	23
1.34733	25
1.35100	28
1.35467	31
1.35833	33
1.36200	33
1.36567	32
1.36933	30
1.37300	30
1.37667	28
1.38033	26
1.38400	25
1.38767	27
1.39133	27
1.39500	26
1.39867	25
1.40233	23
1.40600	22
1.40967	25
1.41333	25
1.41700	25
1.42067	25
1.42433	25
1.42800	26
1.43167	26
1.43533	28
1.43900	29
1.44267	29
1.44633	27
1.45000	28
1.45367	31
1.45733	32
1.46100	31
1.46467	29
1.46833	25
1.47200	23
1.47567	24
1.47933	24
1.48300	24
1.48667	26
1.49033	28
1.49400	29
1.49767	29
1.50133	27
1.50500	23
1.50867	21
1.51233	21
1.51600	24
1.51967	25
1.52333	25
1.52700	26
1.53067	26
1.53433	29
1.53800	30
1.54167	28
1.54533	27
1.54900	27
1.55267	27
1.55633	26
1.56000	26
1.56367	26
1.56733	26
1.57100	25
1.57467	25
1.57833	26
1.58200	27
1.58567	28
1.58933	29
1.59300	28
1.59667	29
1.60033	30
1.60400	29
1.60767	28
1.61133	28
1.61500	28
1.61867	28
1.62233	30
1.62600	33
1.62967	34
1.63333	34
1.63700	35
1.64067	36
1.64433	38
1.64800	40
1.65167	42
1.65533	43
1.65900	42
1.66267	41
1.66633	40
1.67000	41
1.67367	41
1.67733	38
1.68100	37
1.68467	38
1.68833	39
1.69200	42
1.69567	43
1.69933	45
1.70300	45
1.70667	43
1.71033	43
1.71400	40
1.71767	39
1.72133	39
1.72500	39
1.72867	42
1.73233	46
1.73600	46
1.73967	46
1.74333	47
1.74700	46
1.75067	45
1.75433	41
1.75800	39
1.76167	40
1.76533	43
1.76900	45
1.77267	47
1.77633	49
1.78000	49
1.78367	49
1.78733	50
1.79100	49
1.79467	48
1.79833	48
1.80200	49
1.80567	51
1.80933	51
1.81300	50
1.81667	52
1.82033	54
1.82400	56
1.82767	57
1.83133	58
1.83500	59
1.83867	60
1.84233	63
1.84600	62
1.84967	61
1.85333	61
1.85700	60
1.86067	61
1.86433	61
1.86800	62
1.87167	62
1.87533	63
1.87900	64
1.88267	64
1.88633	65
1.89000	67
1.89367	69
1.89733	70
1.90100	71
1.90467	72
1.90833	72
1.91200	73
1.91567	73
1.91933	74
1.92300	77
1.92667	79
1.93033	79
1.93400	80
1.93767	82
1.94133	81
1.94500	82
1.94867	84
1.95233	87
1.95600	89
1.95967	88
1.96333	85
1.96700	86
1.97067	87
1.97433	89
1.97800	92
1.98167	93
1.98533	94
1.98900	94
1.99267	93
1.99633	94
2.00000	94
2.00367	94
2.00733	97
2.01100	99
2.01467	100
2.01833	102
2.02200	104
2.02567	104
2.02933	105
2.03300	108
2.03667	110
2.04033	109
2.04400	108
2.04767	109
2.05133	108
2.05500	109
2.05867	113
2.06233	117
2.06600	119
2.06967	119
2.07333	119
2.07700	120
2.08067	121
2.08433	121
2.08800	119
2.09167	121
2.09533	123
2.09900	122
2.10267	123
2.10633	122
2.11000	123
2.11367	127
2.11733	131
2.12100	132
2.12467	130
2.12833	127
2.13200	125
2.13567	124
2.13933	124
2.14300	125
2.14667	127
2.15033	128
2.15400	130
2.15767	133
2.16133	137
2.16500	139
2.16867	140
2.17233	139
2.17600	138
2.17967	138
2.18333	139
2.18700	139
2.19067	140
2.19433	141
2.19800	142
2.20167	143
2.20533	144
2.20900	147
2.21267	149
2.21633	151
2.22000	152
2.22367	153
2.22733	155
2.23100	155
2.23467	156
2.23833	157
2.24200	158
2.24567	158
2.24933	159
2.25300	161
2.25667	162
2.26033	162
2.26400	163
2.26767	164
2.27133	167
2.27500	168
2.27867	169
2.28233	169
2.28600	168
2.28967	167
2.29333	167
2.29700	168
2.30067	168
2.30433	169
2.30800	171
2.31167	171
2.31533	172
2.31900	174
2.32267	177
2.32633	177
2.33000	177
2.33367	177
2.33733	180
2.34100	184
2.34467	186
2.34833	186
2.35200	183
2.35567	180
2.35933	181
2.36300	182
2.36667	183
2.37033	182
2.37400	182
2.37767	184
2.38133	188
2.38500	187
2.38867	186
2.39233	186
2.39600	186
2.39967	190
2.40333	193
2.40700	196
2.41067	197
2.41433	198
2.41800	199
2.42167	201
2.42533	202
2.42900	201
2.43267	202
2.43633	201
2.44000	203
2.44367	248
2.44733	362
2.45100	487
2.45467	589
2.45833	644
2.46200	653
2.46567	640
2.46933	624
2.47300	614
2.47667	602
2.48033	582
2.48400	549
2.48767	510
2.49133	475
2.49500	447
2.49867	426
2.50233	413
2.50600	408
2.50967	412
2.51333	423
2.51700	436
2.52067	448
2.52433	455
2.52800	454
2.53167	442
2.53533	422
2.53900	398
2.54267	374
2.54633	351
2.55000	331
2.55367	315
2.55733	306
2.56100	298
2.56467	293
2.56833	290
2.57200	289
2.57567	288
2.57933	288
2.58300	288
2.58667	290
2.59033	295
2.59400	299
2.59767	305
2.60133	310
2.60500	312
2.60867	313
2.61233	311
2.61600	305
2.61967	297
2.62333	286
2.62700	274
2.63067	261
2.63433	248
2.63800	235
2.64167	224
2.64533	215
2.64900	207
2.65267	200
2.65633	191
2.66000	181
2.66367	173
2.66733	167
2.67100	164
2.67467	162
2.67833	160
2.68200	159
2.68567	162
2.68933	167
2.69300	171
2.69667	174
2.70033	176
2.70400	180
2.70767	185
2.71133	188
2.71500	190
2.71867	195
2.72233	197
2.72600	199
2.72967	204
2.73333	207
2.73700	208
2.74067	208
2.74433	209
2.74800	211
2.75167	213
2.75533	214
2.75900	216
2.76267	218
2.76633	219
2.77000	221
2.77367	224
2.77733	229
2.78100	233
2.78467	236
2.78833	237
2.79200	238
2.79567	241
2.79933	244
2.80300	249
2.80667	253
2.81033	259
2.81400	264
2.81767	269
2.82133	277
2.82500	293
2.82867	324
2.83233	386
2.83600	496
2.83967	676
2.84333	948
2.84700	1317
2.85067	1780
2.85433	2319
2.85800	2900
2.86167	3476
2.86533	3997
2.86900	4421
2.87267	4716
2.87633	4872
2.88000	4887
2.88367	4783
2.88733	4581
2.89100	4307
2.89467	3989
2.89833	3652
2.90200	3312
2.90567	2983
2.90933	2674
2.91300	2385
2.91667	2121
2.92033	1886
2.92400	1676
2.92767	1489
2.93133	1325
2.93500	1180
2.93867	1054
2.94233	944
2.94600	847
2.94967	764
2.95333	690
2.95700	626
2.96067	573
2.96433	528
2.96800	490
2.97167	456
2.97533	427
2.97900	403
2.98267	381
2.98633	361
2.99000	344
2.99367	332
2.99733	320
3.00100	309
3.00467	301
3.00833	295
3.01200	289
3.01567	283
3.01933	278
3.02300	275
3.02667	270
3.03033	266
3.03400	263
3.03767	263
3.04133	263
3.04500	262
3.04867	260
3.05233	259
3.05600	258
3.05967	257
3.06333	256
3.06700	256
3.07067	256
3.07433	257
3.07800	259
3.08167	258
3.08533	258
3.08900	256
3.09267	252
3.09633	248
3.10000	254
3.10367	270
3.10733	294
3.11100	322
3.11467	352
3.11833	387
3.12200	425
3.12567	468
3.12933	512
3.13300	557
3.13667	600
3.14033	642
3.14400	680
3.14767	712
3.15133	739
3.15500	761
3.15867	780
3.16233	799
3.16600	815
3.16967	829
3.17333	843
3.17700	855
3.18067	865
3.18433	873
3.18800	883
3.19167	892
3.19533	899
3.19900	903
3.20267	906
3.20633	911
3.21000	917
3.21367	923
3.21733	929
3.22100	934
3.22467	939
3.22833	945
3.23200	952
3.23567	956
3.23933	963
3.24300	968
3.24667	974
3.25033	979
3.25400	984
3.25767	988
3.26133	990
3.26500	994
3.26867	998
3.27233	1001
3.27600	1007
3.27967	1011
3.28333	1014
3.28700	1018
3.29067	1023
3.29433	1026
3.29800	1028
3.30167	1027
3.30533	1026
3.30900	1023
3.31267	1020
3.31633	1022
3.32000	1023
3.32367	1023
3.32733	1021
3.33100	1017
3.33467	1012
3.33833	1009
3.34200	1007
3.34567	1005
3.34933	1002
3.35300	1000
3.35667	997
3.36033	992
3.36400	987
3.36767	983
3.37133	979
3.37500	977
3.37867	975
3.38233	972
3.38600	970
3.38967	969
3.39333	968
3.39700	966
3.40067	962
3.40433	957
3.40800	951
3.41167	947
3.41533	944
3.41900	943
3.42267	940
3.42633	939
3.43000	940
3.43367	942
3.43733	939
3.44100	935
3.44467	933
3.44833	931
3.45200	928
3.45567	923
3.45933	919
3.46300	917
3.46667	917
3.47033	918
3.47400	918
3.47767	917
3.48133	913
3.48500	911
3.48867	909
3.49233	906
3.49600	902
3.49967	896
3.50333	892
3.50700	890
3.51067	888
3.51433	885
3.51800	882
3.52167	878
3.52533	875
3.52900	873
3.53267	873
3.53633	874
3.54000	872
3.54367	867
3.54733	863
3.55100	861
3.55467	859
3.55833	856
3.56200	852
3.56567	852
3.56933	852
3.57300	850
3.57667	847
3.58033	843
3.58400	840
3.58767	840
3.59133	837
3.59500	835
3.59867	831
3.60233	828
3.60600	825
3.60967	824
3.61333	823
3.61700	820
3.62067	816
3.62433	814
3.62800	813
3.63167	810
3.63533	806
3.63900	800
3.64267	795
3.64633	791
3.65000	787
3.65367	785
3.65733	785
3.66100	784
3.66467	780
3.66833	774
3.67200	769
3.67567	766
3.67933	765
3.68300	765
3.68667	763
3.69033	760
3.69400	757
3.69767	751
3.70133	747
3.70500	746
3.70867	742
3.71233	741
3.71600	739
3.71967	737
3.72333	736
3.72700	735
3.73067	734
3.73433	732
3.73800	730
3.74167	728
3.74533	725
3.74900	722
3.75267	717
3.75633	711
3.76000	706
3.76367	703
3.76733	702
3.77100	699
3.77467	695
3.77833	693
3.78200	693
3.78567	693
3.78933	692
3.79300	690
3.79667	690
3.80033	690
3.80400	688
3.80767	686
3.81133	683
3.81500	681
3.81867	680
3.82233	679
3.82600	675
3.82967	672
3.83333	670
3.83700	669
3.84067	665
3.84433	661
3.84800	658
3.85167	659
3.85533	659
3.85900	657
3.86267	655
3.86633	652
3.87000	649
3.87367	647
3.87733	644
3.88100	644
3.88467	645
3.88833	646
3.89200	647
3.89567	646
3.89933	645
3.90300	643
3.90667	640
3.91033	640
3.91400	638
3.91767	636
3.92133	633
3.92500	629
3.92867	626
3.93233	624
3.93600	624
3.93967	626
3.94333	625
3.94700	622
3.95067	620
3.95433	620
3.95800	619
3.96167	618
3.96533	614
3.96900	610
3.97267	610
3.97633	610
3.98000	610
3.98367	605
3.98733	603
3.99100	602
3.99467	600
3.99833	597

[Status Trace (Column Oven Temperature)]
Interval(msec)	1000
# of Points	240
Start Time(min)	0.005
End Time(min)	3.988
Intensity Units	
Intensity Multiplier	1
R.Time (min)	Intensity
0.00472	35.03
0.02138	35.03
0.03805	35.03
0.05472	35.03
0.07138	35.03
0.08805	35.03
0.10472	35.03
0.12138	35.04
0.13805	35.04
0.15472	35.05
0.17138	35.04
0.18805	35.02
0.20472	35.01
0.22138	35.00
0.23805	34.99
0.25472	35.00
0.27138	35.02
0.28805	35.04
0.30472	35.04
0.32138	35.03
0.33805	35.01
0.35472	34.99
0.37138	34.99
0.38805	34.99
0.40472	35.01
0.42138	35.02
0.43805	35.02
0.45472	35.02
0.47138	35.01
0.48805	35.00
0.50472	34.98
0.52138	34.98
0.53805	34.99
0.55472	35.00
0.57138	35.01
0.58805	35.02
0.60472	35.03
0.62138	35.04
0.63805	35.03
0.65472	35.02
0.67138	35.02
0.68805	35.01
0.70472	35.01
0.72138	35.02
0.73805	35.02
0.75472	35.03
0.77138	35.03
0.78805	35.01
0.80472	35.01
0.82138	35.00
0.83805	35.01
0.85472	35.01
0.87138	35.00
0.88805	34.99
0.90472	34.99
0.92138	34.97
0.93805	34.97
0.95472	34.97
0.97138	34.97
0.98805	34.98
1.00472	34.98
1.02138	34.98
1.03805	34.98
1.05472	35.00
1.07138	35.00
1.08805	35.01
1.10472	35.03
1.12138	35.03
1.13805	35.03
1.15472	35.03
1.17138	35.03
1.18805	35.03
1.20472	35.02
1.22138	35.02
1.23805	35.01
1.25472	35.00
1.27138	34.99
1.28805	34.99
1.30472	34.99
1.32138	34.97
1.33805	34.96
1.35472	34.96
1.37138	34.97
1.38805	34.97
1.40472	34.97
1.42138	34.98
1.43805	34.99
1.45472	35.00
1.47138	35.02
1.48805	35.02
1.50472	35.02
1.52138	35.02
1.53805	35.01
1.55472	35.01
1.57138	35.00
1.58805	35.01
1.60472	35.06
1.62138	35.17
1.63805	35.36
1.65472	35.59
1.67138	35.89
1.68805	36.24
1.70472	36.59
1.72138	36.93
1.73805	37.28
1.75472	37.61
1.77138	37.96
1.78805	38.28
1.80472	38.59
1.82138	38.94
1.83805	39.27
1.85472	39.59
1.87138	39.93
1.88805	40.25
1.90472	40.57
1.92138	40.90
1.93805	41.22
1.95472	41.55
1.97138	41.87
1.98805	42.19
2.00472	42.53
2.02138	42.85
2.03805	43.19
2.05472	43.51
2.07138	43.82
2.08805	44.15
2.10472	44.48
2.12138	44.82
2.13805	45.12
2.15472	45.46
2.17138	45.81
2.18805	46.13
2.20472	46.47
2.22138	46.78
2.23805	47.12
2.25472	47.45
2.27138	47.76
2.28805	48.10
2.30472	48.42
2.32138	48.76
2.33805	49.08
2.35472	49.38
2.37138	49.61
2.38805	49.69
2.40472	49.69
2.42138	49.70
2.43805	49.72
2.45472	49.71
2.47138	49.73
2.48805	49.74
2.50472	49.75
2.52138	49.77
2.53805	49.78
2.55472	49.80
2.57138	49.82
2.58805	49.81
2.60472	49.82
2.62138	49.82
2.63805	49.84
2.65472	49.85
2.67138	49.85
2.68805	49.84
2.70472	49.85
2.72138	49.85
2.73805	49.86
2.75472	49.87
2.77138	49.85
2.78805	49.85
2.80472	49.85
2.82138	49.89
2.83805	49.91
2.85472	49.92
2.87138	49.93
2.88805	49.92
2.90472	49.93
2.92138	49.94
2.93805	49.96
2.95472	49.97
2.97138	49.98
2.98805	49.98
3.00472	49.99
3.02138	50.00
3.03805	50.00
3.05472	50.00
3.07138	50.01
3.08805	50.02
3.10472	50.02
3.12138	50.01
3.13805	50.01
3.15472	50.01
3.17138	50.02
3.18805	50.02
3.20472	50.03
3.22138	50.04
3.23805	50.06
3.25472	50.07
3.27138	50.08
3.28805	50.08
3.30472	50.09
3.32138	50.09
3.33805	50.10
3.35472	50.11
3.37138	50.11
3.38805	50.10
3.40472	50.09
3.42138	50.08
3.43805	50.06
3.45472	50.06
3.47138	50.05
3.48805	50.04
3.50472	50.04
3.52138	50.04
3.53805	50.03
3.55472	50.03
3.57138	50.03
3.58805	50.04
3.60472	50.05
3.62138	50.06
3.63805	50.05
3.65472	50.05
3.67138	50.05
3.68805	50.04
3.70472	50.04
3.72138	50.04
3.73805	50.05
3.75472	50.06
3.77138	50.06
3.78805	50.07
3.80472	50.06
3.82138	50.06
3.83805	50.06
3.85472	50.06
3.87138	50.06
3.88805	50.06
3.90472	50.07
3.92138	50.06
3.93805	50.06
3.95472	50.07
3.97138	50.06
3.98805	50.07

[Status Trace (Injection Unit Temperature)]
Interval(msec)	1000
# of Points	240
Start Time(min)	0.005
End Time(min)	3.988
Intensity Units	
Intensity Multiplier	1
R.Time (min)	Intensity
0.00472	99.98
0.02138	99.98
0.03805	99.97
0.05472	99.98
0.07138	99.98
0.08805	99.98
0.10472	99.98
0.12138	99.98
0.13805	99.98
0.15472	99.98
0.17138	99.98
0.18805	99.98
0.20472	99.98
0.22138	99.98
0.23805	99.98
0.25472	99.98
0.27138	99.98
0.28805	99.98
0.30472	99.98
0.32138	99.98
0.33805	99.98
0.35472	99.98
0.37138	99.98
0.38805	99.98
0.40472	99.98
0.42138	99.98
0.43805	99.98
0.45472	99.98
0.47138	99.98
0.48805	99.98
0.50472	99.98
0.52138	99.98
0.53805	99.98
0.55472	99.98
0.57138	99.98
0.58805	99.98
0.60472	99.98
0.62138	99.98
0.63805	99.98
0.65472	99.98
0.67138	99.98
0.68805	99.98
0.70472	99.99
0.72138	99.98
0.73805	99.98
0.75472	99.98
0.77138	99.98
0.78805	99.99
0.80472	99.98
0.82138	99.98
0.83805	99.99
0.85472	99.98
0.87138	99.99
0.88805	99.99
0.90472	99.98
0.92138	99.98
0.93805	99.99
0.95472	99.99
0.97138	99.98
0.98805	99.98
1.00472	99.99
1.02138	99.99
1.03805	99.99
1.05472	99.99
1.07138	99.99
1.08805	99.99
1.10472	99.99
1.12138	99.99
1.13805	99.99
1.15472	99.99
1.17138	99.98
1.18805	99.99
1.20472	99.98
1.22138	99.99
1.23805	99.98
1.25472	99.98
1.27138	99.99
1.28805	99.98
1.30472	99.98
1.32138	99.98
1.33805	99.99
1.35472	99.98
1.37138	99.98
1.38805	99.98
1.40472	99.98
1.42138	99.98
1.43805	99.98
1.45472	99.98
1.47138	99.98
1.48805	99.98
1.50472	99.98
1.52138	99.97
1.53805	99.98
1.55472	99.98
1.57138	99.98
1.58805	99.98
1.60472	99.98
1.62138	99.98
1.63805	99.98
1.65472	99.98
1.67138	99.98
1.68805	99.98
1.70472	99.98
1.72138	99.98
1.73805	99.98
1.75472	99.98
1.77138	99.98
1.78805	99.98
1.80472	99.98
1.82138	99.98
1.83805	99.98
1.85472	99.98
1.87138	99.98
1.88805	99.98
1.90472	99.98
1.92138	99.98
1.93805	99.98
1.95472	99.98
1.97138	99.98
1.98805	99.98
2.00472	99.98
2.02138	99.98
2.03805	99.97
2.05472	99.97
2.07138	99.97
2.08805	99.98
2.10472	99.98
2.12138	99.97
2.13805	99.97
2.15472	99.97
2.17138	99.97
2.18805	99.97
2.20472	99.97
2.22138	99.97
2.23805	99.97
2.25472	99.97
2.27138	99.96
2.28805	99.97
2.30472	99.97
2.32138	99.96
2.33805	99.97
2.35472	99.97
2.37138	99.97
2.38805	99.97
2.40472	99.97
2.42138	99.96
2.43805	99.96
2.45472	99.97
2.47138	99.96
2.48805	99.97
2.50472	99.97
2.52138	99.97
2.53805	99.96
2.55472	99.97
2.57138	99.97
2.58805	99.98
2.60472	99.97
2.62138	99.98
2.63805	99.98
2.65472	99.98
2.67138	99.98
2.68805	99.98
2.70472	99.99
2.72138	99.99
2.73805	99.99
2.75472	99.98
2.77138	99.99
2.78805	99.99
2.80472	99.99
2.82138	99.99
2.83805	100.00
2.85472	100.00
2.87138	100.00
2.88805	100.00
2.90472	100.01
2.92138	100.00
2.93805	100.00
2.95472	100.01
2.97138	100.01
2.98805	100.01
3.00472	100.01
3.02138	100.01
3.03805	100.01
3.05472	100.02
3.07138	100.02
3.08805	100.02
3.10472	100.02
3.12138	100.02
3.13805	100.02
3.15472	100.02
3.17138	100.02
3.18805	100.02
3.20472	100.03
3.22138	100.03
3.23805	100.02
3.25472	100.02
3.27138	100.03
3.28805	100.03
3.30472	100.03
3.32138	100.03
3.33805	100.04
3.35472	100.04
3.37138	100.04
3.38805	100.03
3.40472	100.04
3.42138	100.04
3.43805	100.04
3.45472	100.04
3.47138	100.04
3.48805	100.04
3.50472	100.04
3.52138	100.04
3.53805	100.04
3.55472	100.04
3.57138	100.04
3.58805	100.04
3.60472	100.04
3.62138	100.04
3.63805	100.04
3.65472	100.04
3.67138	100.04
3.68805	100.04
3.70472	100.04
3.72138	100.04
3.73805	100.05
3.75472	100.04
3.77138	100.04
3.78805	100.04
3.80472	100.04
3.82138	100.05
3.83805	100.04
3.85472	100.04
3.87138	100.05
3.88805	100.05
3.90472	100.05
3.92138	100.04
3.93805	100.04
3.95472	100.05
3.97138	100.05
3.98805	100.05

[Status Trace (Carrier Gas Pressure)]
Interval(msec)	1000
# of Points	240
Start Time(min)	0.005
End Time(min)	3.988
Intensity Units	
Intensity Multiplier	1
R.Time (min)	Intensity
0.00472	58.00
0.02138	55.93
0.03805	56.67
0.05472	58.92
0.07138	59.72
0.08805	58.16
0.10472	57.98
0.12138	58.01
0.13805	58.01
0.15472	58.01
0.17138	58.00
0.18805	58.00
0.20472	58.00
0.22138	58.00
0.23805	58.00
0.25472	58.00
0.27138	58.00
0.28805	58.00
0.30472	58.00
0.32138	58.00
0.33805	58.00
0.35472	58.00
0.37138	58.00
0.38805	58.00
0.40472	58.00
0.42138	58.00
0.43805	58.00
0.45472	58.00
0.47138	58.00
0.48805	58.00
0.50472	58.00
0.52138	58.00
0.53805	58.00
0.55472	58.00
0.57138	58.00
0.58805	58.00
0.60472	58.00
0.62138	58.00
0.63805	58.00
0.65472	58.00
0.67138	58.00
0.68805	58.00
0.70472	58.00
0.72138	58.00
0.73805	58.00
0.75472	58.00
0.77138	58.00
0.78805	58.00
0.80472	58.00
0.82138	58.00
0.83805	58.00
0.85472	58.00
0.87138	58.00
0.88805	58.00
0.90472	58.00
0.92138	58.00
0.93805	58.00
0.95472	58.00
0.97138	58.00
0.98805	58.00
1.00472	58.00
1.02138	58.00
1.03805	58.00
1.05472	58.00
1.07138	58.00
1.08805	58.00
1.10472	58.00
1.12138	58.00
1.13805	58.00
1.15472	58.00
1.17138	58.00
1.18805	58.00
1.20472	58.00
1.22138	58.00
1.23805	58.00
1.25472	58.00
1.27138	58.00
1.28805	58.00
1.30472	58.00
1.32138	58.00
1.33805	58.00
1.35472	58.00
1.37138	58.00
1.38805	58.00
1.40472	58.00
1.42138	58.00
1.43805	58.00
1.45472	58.00
1.47138	58.00
1.48805	58.00
1.50472	58.00
1.52138	58.00
1.53805	58.00
1.55472	58.00
1.57138	58.00
1.58805	58.00
1.60472	58.00
1.62138	58.00
1.63805	58.00
1.65472	58.00
1.67138	58.00
1.68805	58.01
1.70472	58.00
1.72138	58.00
1.73805	58.00
1.75472	58.00
1.77138	58.00
1.78805	58.00
1.80472	58.00
1.82138	58.00
1.83805	58.00
1.85472	58.00
1.87138	58.00
1.88805	58.00
1.90472	58.00
1.92138	58.00
1.93805	58.00
1.95472	58.00
1.97138	58.00
1.98805	58.00
2.00472	58.00
2.02138	58.00
2.03805	58.00
2.05472	58.00
2.07138	58.00
2.08805	58.00
2.10472	58.00
2.12138	58.00
2.13805	58.00
2.15472	58.00
2.17138	58.00
2.18805	58.00
2.20472	58.00
2.22138	58.00
2.23805	58.00
2.25472	58.00
2.27138	58.00
2.28805	58.00
2.30472	58.00
2.32138	58.00
2.33805	58.00
2.35472	58.00
2.37138	58.00
2.38805	57.99
2.40472	57.99
2.42138	58.00
2.43805	58.00
2.45472	58.00
2.47138	58.00
2.48805	58.00
2.50472	57.99
2.52138	57.99
2.53805	58.00
2.55472	58.00
2.57138	58.00
2.58805	58.00
2.60472	58.00
2.62138	58.00
2.63805	58.00
2.65472	58.00
2.67138	58.00
2.68805	58.00
2.70472	58.00
2.72138	58.00
2.73805	58.00
2.75472	58.00
2.77138	58.00
2.78805	58.00
2.80472	58.00
2.82138	58.00
2.83805	58.00
2.85472	58.00
2.87138	58.00
2.88805	58.00
2.90472	58.00
2.92138	58.00
2.93805	58.00
2.95472	58.00
2.97138	58.00
2.98805	58.00
3.00472	58.00
3.02138	58.00
3.03805	58.00
3.05472	58.00
3.07138	58.00
3.08805	58.00
3.10472	58.00
3.12138	58.00
3.13805	58.00
3.15472	58.00
3.17138	58.00
3.18805	58.00
3.20472	58.00
3.22138	58.00
3.23805	58.00
3.25472	58.00
3.27138	58.00
3.28805	58.00
3.30472	58.00
3.32138	58.00
3.33805	58.00
3.35472	58.00
3.37138	58.00
3.38805	58.00
3.40472	58.00
3.42138	58.00
3.43805	58.00
3.45472	58.00
3.47138	58.00
3.48805	58.00
3.50472	58.00
3.52138	58.00
3.53805	58.00
3.55472	58.00
3.57138	58.00
3.58805	58.00
3.60472	58.00
3.62138	58.00
3.63805	58.00
3.65472	58.00
3.67138	58.00
3.68805	58.00
3.70472	58.00
3.72138	58.00
3.73805	58.00
3.75472	58.00
3.77138	58.00
3.78805	58.00
3.80472	58.00
3.82138	58.00
3.83805	58.00
3.85472	58.00
3.87138	58.00
3.88805	58.00
3.90472	58.00
3.92138	58.00
3.93805	58.00
3.95472	58.00
3.97138	58.00
3.98805	58.00

[Status Trace (Carrier Gas Flow)]
Interval(msec)	1000
# of Points	240
Start Time(min)	0.005
End Time(min)	3.988
Intensity Units	
Intensity Multiplier	1
R.Time (min)	Intensity
0.00472	34.52
0.02138	34.56
0.03805	34.55
0.05472	34.55
0.07138	34.49
0.08805	34.52
0.10472	34.52
0.12138	34.52
0.13805	34.52
0.15472	34.52
0.17138	34.52
0.18805	34.52
0.20472	34.52
0.22138	34.52
0.23805	34.52
0.25472	34.52
0.27138	34.51
0.28805	34.51
0.30472	34.52
0.32138	34.52
0.33805	34.52
0.35472	34.52
0.37138	34.52
0.38805	34.51
0.40472	34.52
0.42138	34.52
0.43805	34.52
0.45472	34.52
0.47138	34.53
0.48805	34.52
0.50472	34.52
0.52138	34.52
0.53805	34.52
0.55472	34.52
0.57138	34.52
0.58805	34.52
0.60472	34.53
0.62138	34.52
0.63805	34.51
0.65472	34.52
0.67138	34.52
0.68805	34.51
0.70472	34.52
0.72138	34.52
0.73805	34.52
0.75472	34.52
0.77138	34.52
0.78805	34.52
0.80472	34.52
0.82138	34.52
0.83805	34.52
0.85472	34.52
0.87138	34.52
0.88805	34.52
0.90472	34.52
0.92138	34.52
0.93805	34.52
0.95472	34.52
0.97138	34.52
0.98805	34.52
1.00472	34.52
1.02138	34.52
1.03805	34.52
1.05472	34.52
1.07138	34.52
1.08805	34.52
1.10472	34.52
1.12138	34.52
1.13805	34.52
1.15472	34.52
1.17138	34.52
1.18805	34.52
1.20472	34.52
1.22138	34.52
1.23805	34.52
1.25472	34.51
1.27138	34.52
1.28805	34.52
1.30472	34.52
1.32138	34.52
1.33805	34.52
1.35472	34.52
1.37138	34.52
1.38805	34.52
1.40472	34.52
1.42138	34.52
1.43805	34.52
1.45472	34.52
1.47138	34.52
1.48805	34.52
1.50472	34.52
1.52138	34.53
1.53805	34.52
1.55472	34.52
1.57138	34.52
1.58805	34.52
1.60472	34.52
1.62138	34.52
1.63805	34.52
1.65472	34.52
1.67138	34.52
1.68805	34.52
1.70472	34.52
1.72138	34.52
1.73805	34.52
1.75472	34.52
1.77138	34.52
1.78805	34.52
1.80472	34.52
1.82138	34.52
1.83805	34.52
1.85472	34.52
1.87138	34.52
1.88805	34.52
1.90472	34.52
1.92138	34.52
1.93805	34.52
1.95472	34.52
1.97138	34.52
1.98805	34.52
2.00472	34.52
2.02138	34.52
2.03805	34.52
2.05472	34.52
2.07138	34.52
2.08805	34.52
2.10472	34.52
2.12138	34.52
2.13805	34.52
2.15472	34.52
2.17138	34.52
2.18805	34.51
2.20472	34.52
2.22138	34.52
2.23805	34.52
2.25472	34.52
2.27138	34.52
2.28805	34.52
2.30472	34.52
2.32138	34.52
2.33805	34.52
2.35472	34.52
2.37138	34.52
2.38805	34.52
2.40472	34.52
2.42138	34.52
2.43805	34.52
2.45472	34.52
2.47138	34.52
2.48805	34.52
2.50472	34.52
2.52138	34.52
2.53805	34.51
2.55472	34.52
2.57138	34.52
2.58805	34.52
2.60472	34.52
2.62138	34.51
2.63805	34.52
2.65472	34.52
2.67138	34.52
2.68805	34.52
2.70472	34.52
2.72138	34.51
2.73805	34.51
2.75472	34.52
2.77138	34.52
2.78805	34.52
2.80472	34.52
2.82138	34.52
2.83805	34.52
2.85472	34.52
2.87138	34.52
2.88805	34.52
2.90472	34.52
2.92138	34.52
2.93805	34.52
2.95472	34.52
2.97138	34.52
2.98805	34.52
3.00472	34.52
3.02138	34.52
3.03805	34.52
3.05472	34.52
3.07138	34.52
3.08805	34.52
3.10472	34.52
3.12138	34.52
3.13805	34.52
3.15472	34.52
3.17138	34.52
3.18805	34.52
3.20472	34.52
3.22138	34.52
3.23805	34.52
3.25472	34.52
3.27138	34.52
3.28805	34.52
3.30472	34.52
3.32138	34.52
3.33805	34.52
3.35472	34.52
3.37138	34.52
3.38805	34.52
3.40472	34.52
3.42138	34.52
3.43805	34.52
3.45472	34.52
3.47138	34.52
3.48805	34.52
3.50472	34.52
3.52138	34.52
3.53805	34.52
3.55472	34.52
3.57138	34.52
3.58805	34.52
3.60472	34.52
3.62138	34.52
3.63805	34.52
3.65472	34.52
3.67138	34.52
3.68805	34.52
3.70472	34.52
3.72138	34.52
3.73805	34.52
3.75472	34.52
3.77138	34.52
3.78805	34.52
3.80472	34.51
3.82138	34.52
3.83805	34.52
3.85472	34.52
3.87138	34.52
3.88805	34.52
3.90472	34.52
3.92138	34.52
3.93805	34.52
3.95472	34.52
3.97138	34.52
3.98805	34.52

[Status Trace (Column Flow)]
Interval(msec)	1000
# of Points	240
Start Time(min)	0.005
End Time(min)	3.988
Intensity Units	
Intensity Multiplier	1
R.Time (min)	Intensity
0.00472	5.52
0.02138	5.28
0.03805	5.37
0.05472	5.63
0.07138	5.72
0.08805	5.54
0.10472	5.52
0.12138	5.52
0.13805	5.52
0.15472	5.52
0.17138	5.52
0.18805	5.52
0.20472	5.52
0.22138	5.52
0.23805	5.52
0.25472	5.52
0.27138	5.52
0.28805	5.52
0.30472	5.52
0.32138	5.52
0.33805	5.52
0.35472	5.52
0.37138	5.52
0.38805	5.52
0.40472	5.52
0.42138	5.52
0.43805	5.52
0.45472	5.52
0.47138	5.52
0.48805	5.52
0.50472	5.52
0.52138	5.52
0.53805	5.52
0.55472	5.52
0.57138	5.52
0.58805	5.52
0.60472	5.52
0.62138	5.52
0.63805	5.52
0.65472	5.52
0.67138	5.52
0.68805	5.52
0.70472	5.52
0.72138	5.52
0.73805	5.52
0.75472	5.52
0.77138	5.52
0.78805	5.52
0.80472	5.52
0.82138	5.52
0.83805	5.52
0.85472	5.52
0.87138	5.52
0.88805	5.52
0.90472	5.52
0.92138	5.52
0.93805	5.52
0.95472	5.52
0.97138	5.52
0.98805	5.52
1.00472	5.52
1.02138	5.52
1.03805	5.52
1.05472	5.52
1.07138	5.52
1.08805	5.52
1.10472	5.52
1.12138	5.52
1.13805	5.52
1.15472	5.52
1.17138	5.52
1.18805	5.52
1.20472	5.52
1.22138	5.52
1.23805	5.52
1.25472	5.52
1.27138	5.52
1.28805	5.52
1.30472	5.52
1.32138	5.52
1.33805	5.52
1.35472	5.52
1.37138	5.52
1.38805	5.52
1.40472	5.52
1.42138	5.52
1.43805	5.52
1.45472	5.52
1.47138	5.52
1.48805	5.52
1.50472	5.52
1.52138	5.52
1.53805	5.52
1.55472	5.52
1.57138	5.52
1.58805	5.52
1.60472	5.52
1.62138	5.52
1.63805	5.51
1.65472	5.50
1.67138	5.50
1.68805	5.48
1.70472	5.47
1.72138	5.46
1.73805	5.45
1.75472	5.44
1.77138	5.43
1.78805	5.42
1.80472	5.41
1.82138	5.40
1.83805	5.39
1.85472	5.38
1.87138	5.37
1.88805	5.36
1.90472	5.35
1.92138	5.34
1.93805	5.33
1.95472	5.32
1.97138	5.31
1.98805	5.30
2.00472	5.29
2.02138	5.28
2.03805	5.27
2.05472	5.26
2.07138	5.26
2.08805	5.25
2.10472	5.24
2.12138	5.23
2.13805	5.22
2.15472	5.21
2.17138	5.20
2.18805	5.19
2.20472	5.18
2.22138	5.17
2.23805	5.16
2.25472	5.15
2.27138	5.14
2.28805	5.13
2.30472	5.12
2.32138	5.11
2.33805	5.11
2.35472	5.10
2.37138	5.09
2.38805	5.09
2.40472	5.09
2.42138	5.09
2.43805	5.09
2.45472	5.09
2.47138	5.09
2.48805	5.09
2.50472	5.09
2.52138	5.08
2.53805	5.09
2.55472	5.09
2.57138	5.08
2.58805	5.08
2.60472	5.08
2.62138	5.08
2.63805	5.08
2.65472	5.08
2.67138	5.08
2.68805	5.08
2.70472	5.08
2.72138	5.08
2.73805	5.08
2.75472	5.08
2.77138	5.08
2.78805	5.08
2.80472	5.08
2.82138	5.08
2.83805	5.08
2.85472	5.08
2.87138	5.08
2.88805	5.08
2.90472	5.08
2.92138	5.08
2.93805	5.08
2.95472	5.08
2.97138	5.08
2.98805	5.08
3.00472	5.08
3.02138	5.08
3.03805	5.08
3.05472	5.08
3.07138	5.08
3.08805	5.08
3.10472	5.08
3.12138	5.08
3.13805	5.08
3.15472	5.08
3.17138	5.08
3.18805	5.08
3.20472	5.08
3.22138	5.08
3.23805	5.08
3.25472	5.08
3.27138	5.08
3.28805	5.08
3.30472	5.08
3.32138	5.08
3.33805	5.08
3.35472	5.08
3.37138	5.08
3.38805	5.08
3.40472	5.08
3.42138	5.08
3.43805	5.08
3.45472	5.08
3.47138	5.08
3.48805	5.08
3.50472	5.08
3.52138	5.08
3.53805	5.08
3.55472	5.08
3.57138	5.08
3.58805	5.08
3.60472	5.08
3.62138	5.08
3.63805	5.08
3.65472	5.08
3.67138	5.08
3.68805	5.08
3.70472	5.08
3.72138	5.08
3.73805	5.08
3.75472	5.08
3.77138	5.08
3.78805	5.08
3.80472	5.08
3.82138	5.08
3.83805	5.08
3.85472	5.08
3.87138	5.08
3.88805	5.08
3.90472	5.08
3.92138	5.08
3.93805	5.08
3.95472	5.08
3.97138	5.08
3.98805	5.08

[Status Trace (Linear Velocity)]
Interval(msec)	1000
# of Points	240
Start Time(min)	0.005
End Time(min)	3.988
Intensity Units	
Intensity Multiplier	1
R.Time (min)	Intensity
0.00472	39.01
0.02138	37.65
0.03805	38.14
0.05472	39.62
0.07138	40.14
0.08805	39.12
0.10472	39.00
0.12138	39.02
0.13805	39.02
0.15472	39.02
0.17138	39.02
0.18805	39.02
0.20472	39.02
0.22138	39.02
0.23805	39.02
0.25472	39.02
0.27138	39.02
0.28805	39.01
0.30472	39.01
0.32138	39.02
0.33805	39.02
0.35472	39.02
0.37138	39.02
0.38805	39.02
0.40472	39.02
0.42138	39.02
0.43805	39.02
0.45472	39.02
0.47138	39.02
0.48805	39.02
0.50472	39.02
0.52138	39.02
0.53805	39.02
0.55472	39.02
0.57138	39.02
0.58805	39.02
0.60472	39.01
0.62138	39.01
0.63805	39.01
0.65472	39.01
0.67138	39.02
0.68805	39.02
0.70472	39.02
0.72138	39.02
0.73805	39.01
0.75472	39.01
0.77138	39.01
0.78805	39.02
0.80472	39.02
0.82138	39.02
0.83805	39.02
0.85472	39.02
0.87138	39.02
0.88805	39.02
0.90472	39.02
0.92138	39.02
0.93805	39.02
0.95472	39.02
0.97138	39.02
0.98805	39.02
1.00472	39.02
1.02138	39.02
1.03805	39.02
1.05472	39.02
1.07138	39.02
1.08805	39.02
1.10472	39.01
1.12138	39.01
1.13805	39.01
1.15472	39.01
1.17138	39.01
1.18805	39.01
1.20472	39.01
1.22138	39.02
1.23805	39.02
1.25472	39.02
1.27138	39.02
1.28805	39.02
1.30472	39.02
1.32138	39.02
1.33805	39.02
1.35472	39.02
1.37138	39.02
1.38805	39.02
1.40472	39.02
1.42138	39.02
1.43805	39.02
1.45472	39.02
1.47138	39.02
1.48805	39.02
1.50472	39.02
1.52138	39.01
1.53805	39.02
1.55472	39.02
1.57138	39.02
1.58805	39.02
1.60472	39.01
1.62138	39.00
1.63805	38.99
1.65472	38.96
1.67138	38.93
1.68805	38.90
1.70472	38.87
1.72138	38.83
1.73805	38.80
1.75472	38.77
1.77138	38.73
1.78805	38.70
1.80472	38.67
1.82138	38.64
1.83805	38.61
1.85472	38.58
1.87138	38.55
1.88805	38.52
1.90472	38.49
1.92138	38.46
1.93805	38.43
1.95472	38.40
1.97138	38.37
1.98805	38.34
2.00472	38.31
2.02138	38.28
2.03805	38.25
2.05472	38.22
2.07138	38.19
2.08805	38.16
2.10472	38.13
2.12138	38.10
2.13805	38.07
2.15472	38.04
2.17138	38.01
2.18805	37.98
2.20472	37.95
2.22138	37.92
2.23805	37.89
2.25472	37.86
2.27138	37.83
2.28805	37.80
2.30472	37.77
2.32138	37.74
2.33805	37.71
2.35472	37.69
2.37138	37.67
2.38805	37.66
2.40472	37.66
2.42138	37.66
2.43805	37.66
2.45472	37.66
2.47138	37.66
2.48805	37.66
2.50472	37.65
2.52138	37.64
2.53805	37.65
2.55472	37.65
2.57138	37.65
2.58805	37.65
2.60472	37.65
2.62138	37.65
2.63805	37.65
2.65472	37.65
2.67138	37.65
2.68805	37.65
2.70472	37.65
2.72138	37.65
2.73805	37.65
2.75472	37.64
2.77138	37.65
2.78805	37.65
2.80472	37.65
2.82138	37.64
2.83805	37.64
2.85472	37.64
2.87138	37.64
2.88805	37.64
2.90472	37.64
2.92138	37.64
2.93805	37.64
2.95472	37.64
2.97138	37.64
2.98805	37.63
3.00472	37.63
3.02138	37.63
3.03805	37.63
3.05472	37.63
3.07138	37.63
3.08805	37.63
3.10472	37.63
3.12138	37.63
3.13805	37.63
3.15472	37.63
3.17138	37.63
3.18805	37.63
3.20472	37.63
3.22138	37.63
3.23805	37.63
3.25472	37.63
3.27138	37.63
3.28805	37.63
3.30472	37.63
3.32138	37.63
3.33805	37.62
3.35472	37.62
3.37138	37.62
3.38805	37.62
3.40472	37.62
3.42138	37.63
3.43805	37.63
3.45472	37.63
3.47138	37.63
3.48805	37.63
3.50472	37.63
3.52138	37.63
3.53805	37.63
3.55472	37.63
3.57138	37.63
3.58805	37.63
3.60472	37.63
3.62138	37.63
3.63805	37.63
3.65472	37.63
3.67138	37.63
3.68805	37.63
3.70472	37.63
3.72138	37.63
3.73805	37.63
3.75472	37.63
3.77138	37.63
3.78805	37.63
3.80472	37.63
3.82138	37.63
3.83805	37.63
3.85472	37.63
3.87138	37.63
3.88805	37.63
3.90472	37.63
3.92138	37.63
3.93805	37.63
3.95472	37.63
3.97138	37.63
3.98805	37.63

