[Header]
Application Name	LabSolutions
Version	5.110
Data File Name	C:\Users\User\Desktop\GC Analyses\Jack\Nachusa Grasslands Sampling\T3 Timepoint July 12th\T3_07122022_056.gcd
Output Date	3/14/2023
Output Time	3:43:34 PM

[File Information]
Type	Data File
Generated	3/13/2023 8:42:59 PM
Generated by	System Administrator
Modified	3/13/2023 8:49:52 PM
Modified by	System Administrator

[Sample Information]
Operator Name	System Administrator
Acquired	3/13/2023 8:45:52 PM
Sample Type	0:Unknown
Level	0
Sample Name	056
Sample ID	056
ISTD Amount1	1
ISTD Amount2	1
ISTD Amount3	1
ISTD Amount4	1
ISTD Amount5	1
ISTD Amount6	1
ISTD Amount7	1
ISTD Amount8	1
ISTD Amount9	1
ISTD Amount10	1
ISTD Amount11	1
ISTD Amount12	1
ISTD Amount13	1
ISTD Amount14	1
ISTD Amount15	1
ISTD Amount16	1
ISTD Amount17	1
ISTD Amount18	1
ISTD Amount19	1
ISTD Amount20	1
ISTD Amount21	1
ISTD Amount22	1
ISTD Amount23	1
ISTD Amount24	1
ISTD Amount25	1
ISTD Amount26	1
ISTD Amount27	1
ISTD Amount28	1
ISTD Amount29	1
ISTD Amount30	1
ISTD Amount31	1
ISTD Amount32	1
Sample Amount	1
Dilution Factor	1
Vial#	55
Injection Volume	1
Injection Count	1
Bar Code	

[Original Files]
Data File	C:\Users\User\Desktop\GC Analyses\Jack\Nachusa Grasslands Sampling\T3 Timepoint July 12th\T3_07122022_056.gcd
Method File	C:\LabSolutions\Data\GHG_4min_2022\ghg3_togas_w_acet_4 min_new_int.gcm
Batch File	C:\LabSolutions\Data\AutoSamplerTesting\T3_07122022.gcb
Report Format File	c:\LabSolutions\System\DEFAULT.lsr

[File Description]


[Configuration]
Instrument Name	C0B7VH3-Instrument1
Instrument #	1
Line #	1
# of Detectors	3
Detector ID	DET#1	DET#2	DET#3
Detector Name	FID	PTCD	ECD
# of Channels	1	1	1

[Peak Table(Ch1)]
# of Peaks	3
Peak#	R.Time	I.Time	F.Time	Area	Height	A/H	Conc.	Mark	ID#	Name	k'	Plate #	Plate Ht.	Tailing	Resolution	Sep.Factor	Area Ratio	Height Ratio	Conc. %	Norm Conc.
1	1.476	1.439	1.534	24685	12184	2.026	174.279	   	1	CO	0.000	9625	15.585	1.243	0.000	0.000	0	0	16.210	16.210
2	1.571	1.538	1.630	4049	2070	1.956	78.289	   	2	CH4	0.065	11882	12.625	1.197	1.618	0.000	0	0	7.282	7.282
3	1.996	1.941	2.400	3277475	1577069	2.078	822.557	   	3	CO2	0.353	17431	8.606	1.331	7.201	5.462	0	0	76.508	76.508

[Peak Table(Ch2)]
# of Peaks	0

[Peak Table(Ch3)]
# of Peaks	5
Peak#	R.Time	I.Time	F.Time	Area	Height	A/H	Conc.	Mark	ID#	Name	k'	Plate #	Plate Ht.	Tailing	Resolution	Sep.Factor	Area Ratio	Height Ratio	Conc. %	Norm Conc.
1	2.462	2.268	2.510	2276	628	3.622	0.000	   			0.000	9451	15.871	0.000	0.000	0.000	0	0	0.000	0.000
2	2.532	2.510	2.686	1588	351	4.521	0.000	 V 			0.028	4883	30.718	0.000	0.566	0.000	0	0	0.000	0.000
3	2.880	2.803	3.107	17977	4670	3.849	0.459	S  	1	N2O	0.170	13258	11.314	1.571	2.844	6.000	0	0	100.000	100.000
4	3.096	3.041	3.107	103	47	2.189	0.000	T  	2	SF6	0.258	32297	4.644	0.599	2.561	1.518	0	0	0.000	0.000
5	3.335	3.118	3.995	18689	603	30.999	0.000	   	2	SF6	0.354	248	605.235	1.976	0.520	1.376	0	0	0.000	0.000

[Compound Results(Ch1)]
# of IDs	6
ID#	Name	R.Time	Area	Height	Conc.	Curve	3rd	2nd	1st	Constant	Area Ratio	Height Ratio	Conc. %	Norm Conc.
1	CO	1.476	24685	12184	174.279	Linear	0.000000e+00	0.000000e+00	1.416423e+002	0.000000e+00	0	0	16.210	16.210
2	CH4	1.571	4049	2070	78.289	Linear	0.000000e+00	0.000000e+00	5.171738e+001	0.000000e+00	0	0	7.282	7.282
3	CO2	1.996	3277475	1577069	822.557	Linear	0.000000e+00	0.000000e+00	3.984494e+003	0.000000e+00	0	0	76.508	76.508
4	Ethylene	0.000	0	0	0.000	Linear	0.000000e+00	0.000000e+00	0.000000e+00	0.000000e+00	0	0	0.000	0.000
5	Acetylene	0.000	0	0	0.000	Linear	0.000000e+00	0.000000e+00	0.000000e+00	0.000000e+00	0	0	0.000	0.000
6	Ethane	0.000	0	0	0.000	Linear	0.000000e+00	0.000000e+00	0.000000e+00	0.000000e+00	0	0	0.000	0.000

[Compound Results(Ch2)]
# of IDs	5
ID#	Name	R.Time	Area	Height	Conc.	Curve	3rd	2nd	1st	Constant	Area Ratio	Height Ratio	Conc. %	Norm Conc.
1	Hydrogen	0.000	0	0	0.000	Linear	0.000000e+00	0.000000e+00	0.000000e+00	0.000000e+00	0	0	0.000	0.000
2	Oxygen	0.000	0	0	0.000	Linear	0.000000e+00	0.000000e+00	0.000000e+00	0.000000e+00	0	0	0.000	0.000
3	Nitrogen	0.000	0	0	0.000	Linear	0.000000e+00	0.000000e+00	0.000000e+00	0.000000e+00	0	0	0.000	0.000
4	Methane	0.000	0	0	0.000	Linear	0.000000e+00	0.000000e+00	0.000000e+00	0.000000e+00	0	0	0.000	0.000
5	Carbon Monoxide	0.000	0	0	0.000	Linear	0.000000e+00	0.000000e+00	0.000000e+00	0.000000e+00	0	0	0.000	0.000

[Compound Results(Ch3)]
# of IDs	2
ID#	Name	R.Time	Area	Height	Conc.	Curve	3rd	2nd	1st	Constant	Area Ratio	Height Ratio	Conc. %	Norm Conc.
1	N2O	2.880	17977	4670	0.459	Linear	0.000000e+00	0.000000e+00	3.915173e+004	0.000000e+00	0	0	100.000	100.000
2	SF6	3.335	18792	650	0.000	Linear	0.000000e+00	0.000000e+00	0.000000e+00	0.000000e+00	0	0	0.000	0.000

[Group Results(Ch1)]
# of Groups	0

[Group Results(Ch2)]
# of Groups	0

[Group Results(Ch3)]
# of Groups	0

[Chromatogram (Ch1)]
Interval(msec)	220
# of Points	1091
Start Time(min)	0.002
End Time(min)	3.998
R.Time (min)	Intensity
0.00167	24
0.00533	21
0.00900	15
0.01267	11
0.01633	12
0.02000	18
0.02367	23
0.02733	29
0.03100	38
0.03467	44
0.03833	43
0.04200	36
0.04567	28
0.04933	20
0.05300	10
0.05667	4
0.06033	7
0.06400	16
0.06767	27
0.07133	35
0.07500	38
0.07867	40
0.08233	38
0.08600	35
0.08967	35
0.09333	39
0.09700	41
0.10067	49
0.10433	59
0.10800	66
0.11167	67
0.11533	64
0.11900	62
0.12267	65
0.12633	66
0.13000	57
0.13367	46
0.13733	36
0.14100	29
0.14467	26
0.14833	25
0.15200	27
0.15567	33
0.15933	38
0.16300	41
0.16667	41
0.17033	37
0.17400	31
0.17767	29
0.18133	32
0.18500	36
0.18867	39
0.19233	38
0.19600	32
0.19967	25
0.20333	22
0.20700	21
0.21067	22
0.21433	25
0.21800	25
0.22167	27
0.22533	32
0.22900	38
0.23267	41
0.23633	37
0.24000	30
0.24367	21
0.24733	10
0.25100	2
0.25467	-3
0.25833	-7
0.26200	-11
0.26567	-11
0.26933	-5
0.27300	-2
0.27667	-2
0.28033	0
0.28400	8
0.28767	16
0.29133	16
0.29500	7
0.29867	0
0.30233	-2
0.30600	-2
0.30967	-1
0.31333	5
0.31700	10
0.32067	8
0.32433	5
0.32800	4
0.33167	7
0.33533	14
0.33900	21
0.34267	25
0.34633	34
0.35000	42
0.35367	43
0.35733	37
0.36100	23
0.36467	13
0.36833	9
0.37200	8
0.37567	14
0.37933	15
0.38300	15
0.38667	16
0.39033	16
0.39400	18
0.39767	19
0.40133	21
0.40500	23
0.40867	24
0.41233	21
0.41600	15
0.41967	10
0.42333	13
0.42700	16
0.43067	15
0.43433	15
0.43800	13
0.44167	10
0.44533	6
0.44900	4
0.45267	-2
0.45633	-8
0.46000	-6
0.46367	4
0.46733	13
0.47100	17
0.47467	16
0.47833	14
0.48200	13
0.48567	11
0.48933	11
0.49300	10
0.49667	10
0.50033	11
0.50400	14
0.50767	21
0.51133	30
0.51500	41
0.51867	48
0.52233	43
0.52600	30
0.52967	18
0.53333	9
0.53700	2
0.54067	-2
0.54433	-6
0.54800	-6
0.55167	0
0.55533	2
0.55900	-1
0.56267	-4
0.56633	-5
0.57000	-8
0.57367	-9
0.57733	-8
0.58100	-6
0.58467	-3
0.58833	0
0.59200	0
0.59567	-1
0.59933	2
0.60300	7
0.60667	11
0.61033	14
0.61400	12
0.61767	10
0.62133	10
0.62500	14
0.62867	19
0.63233	22
0.63600	25
0.63967	27
0.64333	21
0.64700	12
0.65067	8
0.65433	6
0.65800	9
0.66167	18
0.66533	26
0.66900	30
0.67267	30
0.67633	30
0.68000	31
0.68367	30
0.68733	28
0.69100	24
0.69467	15
0.69833	4
0.70200	-5
0.70567	-7
0.70933	-7
0.71300	-6
0.71667	-1
0.72033	6
0.72400	13
0.72767	16
0.73133	16
0.73500	12
0.73867	7
0.74233	2
0.74600	3
0.74967	3
0.75333	0
0.75700	-5
0.76067	-13
0.76433	-21
0.76800	-28
0.77167	-31
0.77533	-28
0.77900	-23
0.78267	-15
0.78633	-5
0.79000	-3
0.79367	-11
0.79733	-15
0.80100	-12
0.80467	-9
0.80833	-8
0.81200	-3
0.81567	6
0.81933	13
0.82300	17
0.82667	20
0.83033	22
0.83400	23
0.83767	20
0.84133	20
0.84500	24
0.84867	29
0.85233	37
0.85600	45
0.85967	49
0.86333	51
0.86700	51
0.87067	49
0.87433	46
0.87800	42
0.88167	42
0.88533	41
0.88900	40
0.89267	37
0.89633	35
0.90000	32
0.90367	32
0.90733	37
0.91100	39
0.91467	36
0.91833	32
0.92200	25
0.92567	13
0.92933	1
0.93300	-3
0.93667	-1
0.94033	-0
0.94400	3
0.94767	6
0.95133	11
0.95500	17
0.95867	22
0.96233	26
0.96600	30
0.96967	34
0.97333	35
0.97700	36
0.98067	36
0.98433	35
0.98800	33
0.99167	29
0.99533	26
0.99900	26
1.00267	25
1.00633	26
1.01000	25
1.01367	26
1.01733	27
1.02100	27
1.02467	27
1.02833	29
1.03200	31
1.03567	29
1.03933	26
1.04300	27
1.04667	33
1.05033	42
1.05400	50
1.05767	53
1.06133	46
1.06500	31
1.06867	13
1.07233	-4
1.07600	-19
1.07967	-28
1.08333	-29
1.08700	-26
1.09067	-16
1.09433	-5
1.09800	2
1.10167	-0
1.10533	-10
1.10900	-17
1.11267	-20
1.11633	-20
1.12000	-18
1.12367	-14
1.12733	-8
1.13100	-2
1.13467	7
1.13833	16
1.14200	22
1.14567	23
1.14933	20
1.15300	13
1.15667	6
1.16033	1
1.16400	4
1.16767	9
1.17133	13
1.17500	12
1.17867	10
1.18233	7
1.18600	6
1.18967	6
1.19333	8
1.19700	7
1.20067	2
1.20433	-2
1.20800	-3
1.21167	3
1.21533	11
1.21900	12
1.22267	9
1.22633	6
1.23000	4
1.23367	3
1.23733	5
1.24100	8
1.24467	9
1.24833	8
1.25200	9
1.25567	12
1.25933	14
1.26300	13
1.26667	9
1.27033	3
1.27400	-1
1.27767	-3
1.28133	-4
1.28500	-5
1.28867	-2
1.29233	5
1.29600	13
1.29967	21
1.30333	25
1.30700	23
1.31067	18
1.31433	11
1.31800	-1
1.32167	-17
1.32533	-30
1.32900	-38
1.33267	-44
1.33633	-45
1.34000	-43
1.34367	-43
1.34733	-40
1.35100	-29
1.35467	-17
1.35833	-8
1.36200	-7
1.36567	-10
1.36933	-12
1.37300	-13
1.37667	-17
1.38033	-21
1.38400	-23
1.38767	-23
1.39133	-23
1.39500	-18
1.39867	-13
1.40233	-12
1.40600	-11
1.40967	-9
1.41333	-7
1.41700	-3
1.42067	1
1.42433	1
1.42800	-5
1.43167	-14
1.43533	-20
1.43900	-9
1.44267	42
1.44633	207
1.45000	662
1.45367	1715
1.45733	3565
1.46100	5917
1.46467	8232
1.46833	10140
1.47200	11475
1.47567	12130
1.47933	11984
1.48300	11011
1.48667	9399
1.49033	7483
1.49400	5610
1.49767	4005
1.50133	2746
1.50500	1817
1.50867	1160
1.51233	707
1.51600	397
1.51967	188
1.52333	51
1.52700	-37
1.53067	-92
1.53433	-127
1.53800	-138
1.54167	-102
1.54533	34
1.54900	311
1.55267	698
1.55633	1109
1.56000	1470
1.56367	1747
1.56733	1914
1.57100	1941
1.57467	1809
1.57833	1540
1.58200	1200
1.58567	860
1.58933	571
1.59300	346
1.59667	187
1.60033	87
1.60400	30
1.60767	-3
1.61133	-28
1.61500	-51
1.61867	-73
1.62233	-92
1.62600	-105
1.62967	-112
1.63333	-114
1.63700	-114
1.64067	-118
1.64433	-121
1.64800	-122
1.65167	-124
1.65533	-127
1.65900	-126
1.66267	-126
1.66633	-128
1.67000	-132
1.67367	-132
1.67733	-126
1.68100	-119
1.68467	-114
1.68833	-108
1.69200	-101
1.69567	-95
1.69933	-93
1.70300	-99
1.70667	-106
1.71033	-105
1.71400	-99
1.71767	-92
1.72133	-88
1.72500	-85
1.72867	-82
1.73233	-82
1.73600	-82
1.73967	-80
1.74333	-75
1.74700	-71
1.75067	-66
1.75433	-60
1.75800	-59
1.76167	-67
1.76533	-78
1.76900	-89
1.77267	-96
1.77633	-101
1.78000	-100
1.78367	-95
1.78733	-92
1.79100	-93
1.79467	-91
1.79833	-88
1.80200	-85
1.80567	-77
1.80933	-68
1.81300	-66
1.81667	-66
1.82033	-64
1.82400	-57
1.82767	-48
1.83133	-42
1.83500	-43
1.83867	-50
1.84233	-58
1.84600	-65
1.84967	-68
1.85333	-69
1.85700	-68
1.86067	-66
1.86433	-60
1.86800	-54
1.87167	-50
1.87533	-51
1.87900	-56
1.88267	-64
1.88633	-71
1.89000	-74
1.89367	-70
1.89733	-62
1.90100	-55
1.90467	-54
1.90833	-57
1.91200	-62
1.91567	-64
1.91933	-62
1.92300	-57
1.92667	-51
1.93033	-49
1.93400	-50
1.93767	-50
1.94133	-46
1.94500	-37
1.94867	-28
1.95233	-11
1.95600	124
1.95967	1036
1.96333	5715
1.96700	23836
1.97067	77421
1.97433	198532
1.97800	408274
1.98167	692286
1.98533	1001919
1.98900	1279668
1.99267	1480314
1.99633	1577065
2.00000	1561746
2.00367	1444606
2.00733	1252967
2.01100	1023976
2.01467	793959
2.01833	589334
2.02200	423007
2.02567	296574
2.02933	205016
2.03300	140923
2.03667	97053
2.04033	67426
2.04400	47544
2.04767	34193
2.05133	25171
2.05500	19006
2.05867	14738
2.06233	11731
2.06600	9564
2.06967	7964
2.07333	6756
2.07700	5830
2.08067	5100
2.08433	4515
2.08800	4040
2.09167	3644
2.09533	3304
2.09900	3011
2.10267	2763
2.10633	2553
2.11000	2373
2.11367	2214
2.11733	2071
2.12100	1943
2.12467	1832
2.12833	1737
2.13200	1648
2.13567	1561
2.13933	1479
2.14300	1402
2.14667	1334
2.15033	1273
2.15400	1218
2.15767	1169
2.16133	1127
2.16500	1090
2.16867	1051
2.17233	1012
2.17600	977
2.17967	948
2.18333	918
2.18700	887
2.19067	856
2.19433	829
2.19800	804
2.20167	779
2.20533	756
2.20900	736
2.21267	721
2.21633	707
2.22000	692
2.22367	677
2.22733	657
2.23100	639
2.23467	626
2.23833	622
2.24200	616
2.24567	603
2.24933	581
2.25300	553
2.25667	528
2.26033	508
2.26400	492
2.26767	477
2.27133	465
2.27500	461
2.27867	456
2.28233	453
2.28600	452
2.28967	451
2.29333	450
2.29700	443
2.30067	433
2.30433	424
2.30800	412
2.31167	400
2.31533	390
2.31900	387
2.32267	387
2.32633	390
2.33000	393
2.33367	395
2.33733	391
2.34100	382
2.34467	372
2.34833	363
2.35200	355
2.35567	354
2.35933	355
2.36300	354
2.36667	348
2.37033	341
2.37400	336
2.37767	334
2.38133	332
2.38500	327
2.38867	321
2.39233	313
2.39600	304
2.39967	300
2.40333	304
2.40700	310
2.41067	315
2.41433	317
2.41800	311
2.42167	307
2.42533	310
2.42900	315
2.43267	322
2.43633	325
2.44000	322
2.44367	316
2.44733	310
2.45100	304
2.45467	301
2.45833	298
2.46200	290
2.46567	283
2.46933	281
2.47300	281
2.47667	281
2.48033	278
2.48400	273
2.48767	269
2.49133	266
2.49500	264
2.49867	266
2.50233	265
2.50600	259
2.50967	253
2.51333	252
2.51700	255
2.52067	263
2.52433	275
2.52800	282
2.53167	281
2.53533	276
2.53900	268
2.54267	260
2.54633	253
2.55000	247
2.55367	244
2.55733	247
2.56100	253
2.56467	260
2.56833	264
2.57200	267
2.57567	267
2.57933	263
2.58300	258
2.58667	255
2.59033	255
2.59400	257
2.59767	257
2.60133	259
2.60500	265
2.60867	266
2.61233	264
2.61600	262
2.61967	262
2.62333	262
2.62700	260
2.63067	257
2.63433	256
2.63800	258
2.64167	259
2.64533	258
2.64900	260
2.65267	264
2.65633	266
2.66000	266
2.66367	259
2.66733	255
2.67100	253
2.67467	253
2.67833	255
2.68200	252
2.68567	255
2.68933	260
2.69300	264
2.69667	266
2.70033	264
2.70400	261
2.70767	257
2.71133	253
2.71500	251
2.71867	250
2.72233	252
2.72600	255
2.72967	257
2.73333	255
2.73700	254
2.74067	259
2.74433	264
2.74800	270
2.75167	279
2.75533	285
2.75900	284
2.76267	278
2.76633	274
2.77000	274
2.77367	277
2.77733	280
2.78100	278
2.78467	272
2.78833	264
2.79200	261
2.79567	264
2.79933	265
2.80300	260
2.80667	251
2.81033	247
2.81400	250
2.81767	253
2.82133	257
2.82500	263
2.82867	268
2.83233	275
2.83600	281
2.83967	283
2.84333	281
2.84700	281
2.85067	282
2.85433	285
2.85800	290
2.86167	296
2.86533	301
2.86900	300
2.87267	292
2.87633	286
2.88000	286
2.88367	287
2.88733	284
2.89100	278
2.89467	272
2.89833	272
2.90200	276
2.90567	279
2.90933	280
2.91300	283
2.91667	291
2.92033	293
2.92400	292
2.92767	290
2.93133	286
2.93500	281
2.93867	278
2.94233	282
2.94600	285
2.94967	289
2.95333	295
2.95700	299
2.96067	302
2.96433	306
2.96800	304
2.97167	295
2.97533	285
2.97900	281
2.98267	282
2.98633	287
2.99000	294
2.99367	300
2.99733	303
3.00100	304
3.00467	307
3.00833	308
3.01200	306
3.01567	302
3.01933	300
3.02300	299
3.02667	292
3.03033	289
3.03400	288
3.03767	289
3.04133	288
3.04500	286
3.04867	289
3.05233	293
3.05600	294
3.05967	296
3.06333	299
3.06700	300
3.07067	299
3.07433	296
3.07800	288
3.08167	280
3.08533	277
3.08900	277
3.09267	281
3.09633	286
3.10000	286
3.10367	286
3.10733	293
3.11100	309
3.11467	323
3.11833	326
3.12200	320
3.12567	308
3.12933	297
3.13300	288
3.13667	280
3.14033	273
3.14400	270
3.14767	269
3.15133	269
3.15500	269
3.15867	265
3.16233	260
3.16600	258
3.16967	265
3.17333	273
3.17700	273
3.18067	272
3.18433	269
3.18800	269
3.19167	268
3.19533	267
3.19900	270
3.20267	272
3.20633	269
3.21000	266
3.21367	267
3.21733	270
3.22100	269
3.22467	273
3.22833	277
3.23200	278
3.23567	278
3.23933	278
3.24300	278
3.24667	283
3.25033	292
3.25400	300
3.25767	304
3.26133	300
3.26500	294
3.26867	288
3.27233	281
3.27600	277
3.27967	275
3.28333	271
3.28700	269
3.29067	263
3.29433	255
3.29800	246
3.30167	236
3.30533	232
3.30900	233
3.31267	239
3.31633	247
3.32000	256
3.32367	263
3.32733	267
3.33100	270
3.33467	267
3.33833	262
3.34200	258
3.34567	257
3.34933	253
3.35300	254
3.35667	258
3.36033	264
3.36400	271
3.36767	276
3.37133	276
3.37500	274
3.37867	274
3.38233	274
3.38600	272
3.38967	269
3.39333	263
3.39700	255
3.40067	250
3.40433	249
3.40800	252
3.41167	257
3.41533	263
3.41900	270
3.42267	275
3.42633	275
3.43000	272
3.43367	270
3.43733	270
3.44100	273
3.44467	274
3.44833	270
3.45200	261
3.45567	250
3.45933	241
3.46300	241
3.46667	244
3.47033	243
3.47400	236
3.47767	230
3.48133	230
3.48500	237
3.48867	243
3.49233	246
3.49600	248
3.49967	251
3.50333	255
3.50700	255
3.51067	251
3.51433	244
3.51800	237
3.52167	232
3.52533	231
3.52900	232
3.53267	234
3.53633	235
3.54000	238
3.54367	245
3.54733	249
3.55100	245
3.55467	238
3.55833	238
3.56200	240
3.56567	241
3.56933	237
3.57300	228
3.57667	217
3.58033	214
3.58400	220
3.58767	225
3.59133	222
3.59500	219
3.59867	216
3.60233	213
3.60600	208
3.60967	208
3.61333	208
3.61700	207
3.62067	206
3.62433	211
3.62800	217
3.63167	222
3.63533	224
3.63900	226
3.64267	229
3.64633	230
3.65000	234
3.65367	238
3.65733	238
3.66100	234
3.66467	230
3.66833	225
3.67200	221
3.67567	219
3.67933	218
3.68300	218
3.68667	217
3.69033	218
3.69400	220
3.69767	221
3.70133	222
3.70500	226
3.70867	227
3.71233	226
3.71600	226
3.71967	226
3.72333	226
3.72700	225
3.73067	229
3.73433	232
3.73800	230
3.74167	223
3.74533	217
3.74900	215
3.75267	210
3.75633	198
3.76000	187
3.76367	185
3.76733	185
3.77100	182
3.77467	183
3.77833	188
3.78200	199
3.78567	209
3.78933	207
3.79300	198
3.79667	190
3.80033	186
3.80400	189
3.80767	194
3.81133	198
3.81500	202
3.81867	206
3.82233	214
3.82600	220
3.82967	222
3.83333	221
3.83700	218
3.84067	217
3.84433	217
3.84800	218
3.85167	213
3.85533	202
3.85900	191
3.86267	183
3.86633	185
3.87000	191
3.87367	197
3.87733	199
3.88100	197
3.88467	193
3.88833	185
3.89200	177
3.89567	173
3.89933	174
3.90300	180
3.90667	184
3.91033	181
3.91400	183
3.91767	189
3.92133	191
3.92500	188
3.92867	182
3.93233	176
3.93600	169
3.93967	165
3.94333	169
3.94700	179
3.95067	190
3.95433	198
3.95800	198
3.96167	196
3.96533	189
3.96900	178
3.97267	173
3.97633	174
3.98000	177
3.98367	179
3.98733	182
3.99100	179
3.99467	168
3.99833	164

[Chromatogram (Ch2)]
Interval(msec)	220
# of Points	1091
Start Time(min)	0.002
End Time(min)	3.998
R.Time (min)	Intensity
0.00167	-1
0.00533	-1
0.00900	-1
0.01267	-1
0.01633	-1
0.02000	-1
0.02367	-1
0.02733	-1
0.03100	-1
0.03467	-1
0.03833	-1
0.04200	-1
0.04567	-0
0.04933	-0
0.05300	-0
0.05667	0
0.06033	0
0.06400	1
0.06767	1
0.07133	1
0.07500	1
0.07867	2
0.08233	2
0.08600	2
0.08967	3
0.09333	3
0.09700	3
0.10067	3
0.10433	3
0.10800	2
0.11167	2
0.11533	2
0.11900	2
0.12267	2
0.12633	2
0.13000	2
0.13367	2
0.13733	2
0.14100	2
0.14467	2
0.14833	1
0.15200	1
0.15567	0
0.15933	0
0.16300	0
0.16667	-0
0.17033	-0
0.17400	-0
0.17767	-0
0.18133	0
0.18500	0
0.18867	0
0.19233	1
0.19600	1
0.19967	1
0.20333	1
0.20700	0
0.21067	0
0.21433	0
0.21800	-0
0.22167	-0
0.22533	-0
0.22900	-0
0.23267	-0
0.23633	-0
0.24000	0
0.24367	0
0.24733	0
0.25100	1
0.25467	1
0.25833	1
0.26200	2
0.26567	2
0.26933	2
0.27300	2
0.27667	3
0.28033	3
0.28400	3
0.28767	4
0.29133	4
0.29500	4
0.29867	4
0.30233	4
0.30600	4
0.30967	4
0.31333	4
0.31700	4
0.32067	4
0.32433	4
0.32800	4
0.33167	4
0.33533	4
0.33900	4
0.34267	4
0.34633	4
0.35000	4
0.35367	4
0.35733	4
0.36100	4
0.36467	4
0.36833	4
0.37200	4
0.37567	3
0.37933	3
0.38300	2
0.38667	1
0.39033	0
0.39400	-0
0.39767	-1
0.40133	-1
0.40500	-1
0.40867	-2
0.41233	-2
0.41600	-3
0.41967	-3
0.42333	-3
0.42700	-3
0.43067	-3
0.43433	-3
0.43800	-2
0.44167	-2
0.44533	-1
0.44900	-1
0.45267	-0
0.45633	0
0.46000	1
0.46367	1
0.46733	1
0.47100	2
0.47467	2
0.47833	2
0.48200	2
0.48567	2
0.48933	2
0.49300	2
0.49667	2
0.50033	2
0.50400	3
0.50767	3
0.51133	3
0.51500	3
0.51867	3
0.52233	3
0.52600	3
0.52967	2
0.53333	2
0.53700	1
0.54067	1
0.54433	1
0.54800	0
0.55167	-0
0.55533	-0
0.55900	-0
0.56267	-0
0.56633	-0
0.57000	-0
0.57367	-0
0.57733	-0
0.58100	0
0.58467	0
0.58833	0
0.59200	0
0.59567	0
0.59933	1
0.60300	1
0.60667	1
0.61033	1
0.61400	1
0.61767	1
0.62133	1
0.62500	1
0.62867	1
0.63233	1
0.63600	1
0.63967	1
0.64333	1
0.64700	1
0.65067	1
0.65433	1
0.65800	1
0.66167	0
0.66533	1
0.66900	1
0.67267	1
0.67633	1
0.68000	1
0.68367	1
0.68733	0
0.69100	0
0.69467	0
0.69833	0
0.70200	0
0.70567	0
0.70933	0
0.71300	0
0.71667	1
0.72033	1
0.72400	1
0.72767	1
0.73133	1
0.73500	1
0.73867	1
0.74233	1
0.74600	1
0.74967	1
0.75333	1
0.75700	1
0.76067	1
0.76433	1
0.76800	1
0.77167	1
0.77533	1
0.77900	1
0.78267	1
0.78633	0
0.79000	0
0.79367	0
0.79733	-0
0.80100	-0
0.80467	-1
0.80833	-1
0.81200	-1
0.81567	-1
0.81933	-2
0.82300	-2
0.82667	-2
0.83033	-1
0.83400	-1
0.83767	-1
0.84133	-1
0.84500	-1
0.84867	-0
0.85233	-0
0.85600	-0
0.85967	-1
0.86333	-1
0.86700	-1
0.87067	-1
0.87433	-1
0.87800	-1
0.88167	-1
0.88533	-1
0.88900	-1
0.89267	-1
0.89633	-1
0.90000	-0
0.90367	-0
0.90733	-0
0.91100	-0
0.91467	-1
0.91833	-1
0.92200	-1
0.92567	-0
0.92933	-0
0.93300	-0
0.93667	-0
0.94033	-0
0.94400	-0
0.94767	-0
0.95133	-0
0.95500	0
0.95867	0
0.96233	0
0.96600	1
0.96967	1
0.97333	2
0.97700	2
0.98067	2
0.98433	2
0.98800	2
0.99167	2
0.99533	2
0.99900	2
1.00267	2
1.00633	2
1.01000	2
1.01367	2
1.01733	2
1.02100	1
1.02467	1
1.02833	1
1.03200	0
1.03567	0
1.03933	0
1.04300	-0
1.04667	-0
1.05033	-0
1.05400	-0
1.05767	-0
1.06133	-0
1.06500	-0
1.06867	-0
1.07233	-0
1.07600	-0
1.07967	-0
1.08333	-0
1.08700	-0
1.09067	-0
1.09433	-0
1.09800	-0
1.10167	-0
1.10533	-0
1.10900	-0
1.11267	0
1.11633	0
1.12000	1
1.12367	1
1.12733	1
1.13100	1
1.13467	1
1.13833	1
1.14200	1
1.14567	1
1.14933	1
1.15300	1
1.15667	1
1.16033	2
1.16400	2
1.16767	2
1.17133	2
1.17500	2
1.17867	2
1.18233	2
1.18600	2
1.18967	2
1.19333	2
1.19700	2
1.20067	3
1.20433	3
1.20800	3
1.21167	3
1.21533	2
1.21900	2
1.22267	2
1.22633	1
1.23000	1
1.23367	0
1.23733	-0
1.24100	-1
1.24467	-1
1.24833	-1
1.25200	-2
1.25567	-2
1.25933	-2
1.26300	-3
1.26667	-3
1.27033	-3
1.27400	-3
1.27767	-3
1.28133	-3
1.28500	-2
1.28867	-2
1.29233	-2
1.29600	-2
1.29967	-1
1.30333	-1
1.30700	-1
1.31067	-0
1.31433	-0
1.31800	-1
1.32167	-1
1.32533	-1
1.32900	-1
1.33267	-1
1.33633	-2
1.34000	-2
1.34367	-2
1.34733	-3
1.35100	-3
1.35467	-3
1.35833	-3
1.36200	-3
1.36567	-3
1.36933	-3
1.37300	-3
1.37667	-3
1.38033	-3
1.38400	-2
1.38767	-2
1.39133	-2
1.39500	-2
1.39867	-1
1.40233	-1
1.40600	-1
1.40967	-1
1.41333	-1
1.41700	-0
1.42067	-0
1.42433	-0
1.42800	-0
1.43167	0
1.43533	0
1.43900	0
1.44267	0
1.44633	0
1.45000	0
1.45367	0
1.45733	-0
1.46100	-0
1.46467	-0
1.46833	-0
1.47200	-1
1.47567	-1
1.47933	-1
1.48300	-1
1.48667	-1
1.49033	-1
1.49400	-1
1.49767	-1
1.50133	-1
1.50500	-1
1.50867	-1
1.51233	-0
1.51600	0
1.51967	1
1.52333	1
1.52700	1
1.53067	1
1.53433	1
1.53800	1
1.54167	1
1.54533	1
1.54900	0
1.55267	0
1.55633	0
1.56000	0
1.56367	-0
1.56733	-0
1.57100	-1
1.57467	-1
1.57833	-2
1.58200	-2
1.58567	-3
1.58933	-3
1.59300	-4
1.59667	-5
1.60033	-6
1.60400	-7
1.60767	-9
1.61133	-10
1.61500	-12
1.61867	-14
1.62233	-17
1.62600	-19
1.62967	-22
1.63333	-25
1.63700	-28
1.64067	-31
1.64433	-34
1.64800	-37
1.65167	-41
1.65533	-44
1.65900	-47
1.66267	-51
1.66633	-55
1.67000	-59
1.67367	-64
1.67733	-69
1.68100	-74
1.68467	-79
1.68833	-83
1.69200	-88
1.69567	-92
1.69933	-95
1.70300	-98
1.70667	-100
1.71033	-102
1.71400	-103
1.71767	-105
1.72133	-106
1.72500	-107
1.72867	-107
1.73233	-108
1.73600	-108
1.73967	-108
1.74333	-108
1.74700	-108
1.75067	-108
1.75433	-108
1.75800	-108
1.76167	-109
1.76533	-109
1.76900	-110
1.77267	-110
1.77633	-111
1.78000	-112
1.78367	-112
1.78733	-112
1.79100	-112
1.79467	-112
1.79833	-111
1.80200	-111
1.80567	-111
1.80933	-111
1.81300	-111
1.81667	-111
1.82033	-112
1.82400	-113
1.82767	-113
1.83133	-113
1.83500	-113
1.83867	-113
1.84233	-113
1.84600	-113
1.84967	-114
1.85333	-115
1.85700	-115
1.86067	-115
1.86433	-115
1.86800	-114
1.87167	-114
1.87533	-113
1.87900	-112
1.88267	-111
1.88633	-111
1.89000	-110
1.89367	-110
1.89733	-110
1.90100	-110
1.90467	-111
1.90833	-111
1.91200	-111
1.91567	-111
1.91933	-111
1.92300	-111
1.92667	-110
1.93033	-109
1.93400	-109
1.93767	-108
1.94133	-108
1.94500	-108
1.94867	-108
1.95233	-108
1.95600	-108
1.95967	-109
1.96333	-109
1.96700	-109
1.97067	-109
1.97433	-109
1.97800	-109
1.98167	-109
1.98533	-110
1.98900	-109
1.99267	-109
1.99633	-109
2.00000	-108
2.00367	-108
2.00733	-108
2.01100	-107
2.01467	-107
2.01833	-106
2.02200	-105
2.02567	-105
2.02933	-105
2.03300	-104
2.03667	-104
2.04033	-103
2.04400	-103
2.04767	-103
2.05133	-102
2.05500	-102
2.05867	-103
2.06233	-103
2.06600	-103
2.06967	-102
2.07333	-102
2.07700	-101
2.08067	-100
2.08433	-99
2.08800	-99
2.09167	-98
2.09533	-97
2.09900	-97
2.10267	-97
2.10633	-96
2.11000	-96
2.11367	-96
2.11733	-96
2.12100	-95
2.12467	-95
2.12833	-94
2.13200	-94
2.13567	-94
2.13933	-94
2.14300	-94
2.14667	-95
2.15033	-95
2.15400	-94
2.15767	-94
2.16133	-93
2.16500	-93
2.16867	-93
2.17233	-92
2.17600	-92
2.17967	-92
2.18333	-92
2.18700	-92
2.19067	-92
2.19433	-91
2.19800	-91
2.20167	-91
2.20533	-90
2.20900	-90
2.21267	-89
2.21633	-88
2.22000	-88
2.22367	-87
2.22733	-86
2.23100	-86
2.23467	-86
2.23833	-86
2.24200	-85
2.24567	-85
2.24933	-84
2.25300	-84
2.25667	-83
2.26033	-83
2.26400	-83
2.26767	-83
2.27133	-83
2.27500	-82
2.27867	-82
2.28233	-81
2.28600	-80
2.28967	-80
2.29333	-79
2.29700	-79
2.30067	-79
2.30433	-79
2.30800	-79
2.31167	-79
2.31533	-79
2.31900	-79
2.32267	-79
2.32633	-78
2.33000	-77
2.33367	-77
2.33733	-76
2.34100	-75
2.34467	-74
2.34833	-73
2.35200	-72
2.35567	-71
2.35933	-71
2.36300	-70
2.36667	-69
2.37033	-67
2.37400	-65
2.37767	-62
2.38133	-59
2.38500	-56
2.38867	-52
2.39233	-47
2.39600	-43
2.39967	-38
2.40333	-34
2.40700	-30
2.41067	-26
2.41433	-22
2.41800	-19
2.42167	-16
2.42533	-14
2.42900	-12
2.43267	-10
2.43633	-8
2.44000	-6
2.44367	-5
2.44733	-4
2.45100	-3
2.45467	-3
2.45833	-2
2.46200	-2
2.46567	-1
2.46933	-1
2.47300	-0
2.47667	1
2.48033	1
2.48400	2
2.48767	3
2.49133	4
2.49500	5
2.49867	6
2.50233	7
2.50600	8
2.50967	9
2.51333	10
2.51700	11
2.52067	12
2.52433	12
2.52800	13
2.53167	13
2.53533	14
2.53900	14
2.54267	15
2.54633	16
2.55000	16
2.55367	17
2.55733	17
2.56100	16
2.56467	16
2.56833	15
2.57200	15
2.57567	15
2.57933	16
2.58300	16
2.58667	16
2.59033	17
2.59400	17
2.59767	17
2.60133	16
2.60500	16
2.60867	16
2.61233	16
2.61600	17
2.61967	18
2.62333	18
2.62700	19
2.63067	19
2.63433	19
2.63800	20
2.64167	20
2.64533	20
2.64900	20
2.65267	20
2.65633	20
2.66000	20
2.66367	20
2.66733	20
2.67100	20
2.67467	20
2.67833	21
2.68200	22
2.68567	23
2.68933	23
2.69300	24
2.69667	24
2.70033	24
2.70400	24
2.70767	24
2.71133	24
2.71500	24
2.71867	24
2.72233	25
2.72600	25
2.72967	26
2.73333	26
2.73700	27
2.74067	27
2.74433	27
2.74800	27
2.75167	27
2.75533	27
2.75900	27
2.76267	27
2.76633	27
2.77000	27
2.77367	27
2.77733	27
2.78100	27
2.78467	27
2.78833	27
2.79200	27
2.79567	27
2.79933	27
2.80300	28
2.80667	28
2.81033	28
2.81400	28
2.81767	28
2.82133	29
2.82500	29
2.82867	30
2.83233	30
2.83600	30
2.83967	29
2.84333	28
2.84700	25
2.85067	21
2.85433	14
2.85800	5
2.86167	-7
2.86533	-23
2.86900	-43
2.87267	-68
2.87633	-97
2.88000	-131
2.88367	-169
2.88733	-210
2.89100	-256
2.89467	-304
2.89833	-355
2.90200	-408
2.90567	-462
2.90933	-518
2.91300	-573
2.91667	-629
2.92033	-685
2.92400	-739
2.92767	-791
2.93133	-842
2.93500	-894
2.93867	-950
2.94233	-1008
2.94600	-1058
2.94967	-1090
2.95333	-1098
2.95700	-1079
2.96067	-1038
2.96433	-979
2.96800	-908
2.97167	-830
2.97533	-749
2.97900	-669
2.98267	-592
2.98633	-520
2.99000	-454
2.99367	-394
2.99733	-340
3.00100	-292
3.00467	-250
3.00833	-213
3.01200	-181
3.01567	-153
3.01933	-130
3.02300	-109
3.02667	-91
3.03033	-76
3.03400	-63
3.03767	-52
3.04133	-42
3.04500	-33
3.04867	-26
3.05233	-20
3.05600	-15
3.05967	-11
3.06333	-7
3.06700	-4
3.07067	-1
3.07433	1
3.07800	3
3.08167	5
3.08533	7
3.08900	8
3.09267	10
3.09633	11
3.10000	12
3.10367	13
3.10733	14
3.11100	14
3.11467	15
3.11833	15
3.12200	16
3.12567	17
3.12933	17
3.13300	18
3.13667	18
3.14033	19
3.14400	19
3.14767	20
3.15133	20
3.15500	20
3.15867	20
3.16233	21
3.16600	21
3.16967	21
3.17333	21
3.17700	21
3.18067	21
3.18433	21
3.18800	21
3.19167	20
3.19533	21
3.19900	21
3.20267	21
3.20633	21
3.21000	21
3.21367	21
3.21733	22
3.22100	22
3.22467	22
3.22833	22
3.23200	22
3.23567	22
3.23933	22
3.24300	22
3.24667	22
3.25033	22
3.25400	22
3.25767	22
3.26133	22
3.26500	22
3.26867	22
3.27233	22
3.27600	22
3.27967	22
3.28333	22
3.28700	22
3.29067	23
3.29433	23
3.29800	23
3.30167	23
3.30533	23
3.30900	24
3.31267	24
3.31633	24
3.32000	24
3.32367	24
3.32733	24
3.33100	24
3.33467	24
3.33833	24
3.34200	24
3.34567	24
3.34933	24
3.35300	24
3.35667	25
3.36033	25
3.36400	25
3.36767	25
3.37133	25
3.37500	25
3.37867	25
3.38233	25
3.38600	25
3.38967	26
3.39333	26
3.39700	26
3.40067	26
3.40433	26
3.40800	26
3.41167	26
3.41533	26
3.41900	26
3.42267	26
3.42633	26
3.43000	27
3.43367	27
3.43733	28
3.44100	28
3.44467	29
3.44833	29
3.45200	30
3.45567	30
3.45933	30
3.46300	30
3.46667	31
3.47033	31
3.47400	31
3.47767	31
3.48133	31
3.48500	31
3.48867	31
3.49233	31
3.49600	30
3.49967	30
3.50333	30
3.50700	29
3.51067	29
3.51433	29
3.51800	29
3.52167	28
3.52533	28
3.52900	28
3.53267	28
3.53633	28
3.54000	28
3.54367	28
3.54733	28
3.55100	28
3.55467	28
3.55833	28
3.56200	28
3.56567	28
3.56933	29
3.57300	29
3.57667	29
3.58033	29
3.58400	29
3.58767	29
3.59133	29
3.59500	29
3.59867	29
3.60233	29
3.60600	29
3.60967	29
3.61333	29
3.61700	29
3.62067	29
3.62433	28
3.62800	28
3.63167	28
3.63533	27
3.63900	27
3.64267	27
3.64633	27
3.65000	27
3.65367	27
3.65733	27
3.66100	27
3.66467	27
3.66833	27
3.67200	27
3.67567	27
3.67933	27
3.68300	27
3.68667	27
3.69033	27
3.69400	26
3.69767	26
3.70133	26
3.70500	26
3.70867	26
3.71233	26
3.71600	26
3.71967	26
3.72333	26
3.72700	26
3.73067	26
3.73433	26
3.73800	26
3.74167	26
3.74533	27
3.74900	27
3.75267	27
3.75633	27
3.76000	27
3.76367	27
3.76733	27
3.77100	27
3.77467	27
3.77833	27
3.78200	27
3.78567	27
3.78933	27
3.79300	28
3.79667	28
3.80033	28
3.80400	28
3.80767	28
3.81133	29
3.81500	29
3.81867	29
3.82233	29
3.82600	29
3.82967	29
3.83333	29
3.83700	29
3.84067	29
3.84433	28
3.84800	28
3.85167	28
3.85533	27
3.85900	27
3.86267	27
3.86633	27
3.87000	26
3.87367	26
3.87733	26
3.88100	26
3.88467	26
3.88833	25
3.89200	25
3.89567	25
3.89933	24
3.90300	24
3.90667	24
3.91033	24
3.91400	24
3.91767	24
3.92133	24
3.92500	24
3.92867	24
3.93233	25
3.93600	25
3.93967	25
3.94333	25
3.94700	25
3.95067	25
3.95433	25
3.95800	25
3.96167	25
3.96533	25
3.96900	26
3.97267	26
3.97633	26
3.98000	26
3.98367	26
3.98733	26
3.99100	26
3.99467	26
3.99833	26

[Chromatogram (Ch3)]
Interval(msec)	220
# of Points	1091
Start Time(min)	0.002
End Time(min)	3.998
R.Time (min)	Intensity
0.00167	-0
0.00533	-2
0.00900	-5
0.01267	-8
0.01633	-8
0.02000	-8
0.02367	-7
0.02733	-6
0.03100	-4
0.03467	-3
0.03833	-3
0.04200	-5
0.04567	-4
0.04933	-4
0.05300	-4
0.05667	-4
0.06033	-5
0.06400	-5
0.06767	-3
0.07133	-3
0.07500	-3
0.07867	-4
0.08233	-5
0.08600	-3
0.08967	0
0.09333	-1
0.09700	-3
0.10067	-5
0.10433	-4
0.10800	-5
0.11167	-4
0.11533	-4
0.11900	-3
0.12267	-2
0.12633	-3
0.13000	-4
0.13367	-5
0.13733	-4
0.14100	-2
0.14467	-2
0.14833	-2
0.15200	-1
0.15567	0
0.15933	0
0.16300	0
0.16667	-0
0.17033	-3
0.17400	-6
0.17767	-7
0.18133	-8
0.18500	-9
0.18867	-8
0.19233	-7
0.19600	-6
0.19967	-4
0.20333	-3
0.20700	-3
0.21067	-1
0.21433	-1
0.21800	-1
0.22167	-3
0.22533	-4
0.22900	-4
0.23267	-4
0.23633	-5
0.24000	-6
0.24367	-5
0.24733	-5
0.25100	-5
0.25467	-4
0.25833	-3
0.26200	-4
0.26567	-5
0.26933	-6
0.27300	-6
0.27667	-7
0.28033	-9
0.28400	-10
0.28767	-11
0.29133	-11
0.29500	-10
0.29867	-10
0.30233	-10
0.30600	-9
0.30967	-9
0.31333	-8
0.31700	-7
0.32067	-9
0.32433	-10
0.32800	-10
0.33167	-9
0.33533	-8
0.33900	-5
0.34267	-3
0.34633	-3
0.35000	-6
0.35367	-10
0.35733	-12
0.36100	-12
0.36467	-11
0.36833	-11
0.37200	-11
0.37567	-12
0.37933	-11
0.38300	-13
0.38667	-14
0.39033	-12
0.39400	-11
0.39767	-12
0.40133	-14
0.40500	-13
0.40867	-14
0.41233	-13
0.41600	-13
0.41967	-15
0.42333	-16
0.42700	-16
0.43067	-16
0.43433	-15
0.43800	-14
0.44167	-12
0.44533	-12
0.44900	-12
0.45267	-13
0.45633	-13
0.46000	-12
0.46367	-13
0.46733	-14
0.47100	-16
0.47467	-17
0.47833	-19
0.48200	-19
0.48567	-19
0.48933	-17
0.49300	-15
0.49667	-14
0.50033	-13
0.50400	-13
0.50767	-14
0.51133	-14
0.51500	-16
0.51867	-18
0.52233	-18
0.52600	-18
0.52967	-18
0.53333	-18
0.53700	-17
0.54067	-15
0.54433	-15
0.54800	-17
0.55167	-19
0.55533	-19
0.55900	-18
0.56267	-19
0.56633	-21
0.57000	-21
0.57367	-19
0.57733	-18
0.58100	-17
0.58467	-14
0.58833	-12
0.59200	-11
0.59567	-13
0.59933	-16
0.60300	-18
0.60667	-20
0.61033	-19
0.61400	-19
0.61767	-19
0.62133	-19
0.62500	-18
0.62867	-18
0.63233	-18
0.63600	-19
0.63967	-19
0.64333	-17
0.64700	-14
0.65067	-14
0.65433	-13
0.65800	-13
0.66167	-13
0.66533	-12
0.66900	-12
0.67267	-12
0.67633	-10
0.68000	-8
0.68367	-6
0.68733	-4
0.69100	-4
0.69467	-6
0.69833	-7
0.70200	-8
0.70567	-9
0.70933	-10
0.71300	-8
0.71667	-7
0.72033	-6
0.72400	-7
0.72767	-7
0.73133	-5
0.73500	-3
0.73867	-2
0.74233	-2
0.74600	-1
0.74967	-1
0.75333	-1
0.75700	-3
0.76067	-5
0.76433	-6
0.76800	-9
0.77167	-10
0.77533	-9
0.77900	-8
0.78267	-6
0.78633	-6
0.79000	-7
0.79367	-8
0.79733	-8
0.80100	-7
0.80467	-9
0.80833	-10
0.81200	-12
0.81567	-14
0.81933	-17
0.82300	-17
0.82667	-16
0.83033	-14
0.83400	-13
0.83767	-12
0.84133	-11
0.84500	-11
0.84867	-11
0.85233	-10
0.85600	-8
0.85967	-8
0.86333	-8
0.86700	-8
0.87067	-7
0.87433	-8
0.87800	-7
0.88167	-7
0.88533	-7
0.88900	-7
0.89267	-7
0.89633	-7
0.90000	-6
0.90367	-6
0.90733	-5
0.91100	-4
0.91467	-3
0.91833	-3
0.92200	-3
0.92567	-5
0.92933	-5
0.93300	-4
0.93667	-4
0.94033	-4
0.94400	-3
0.94767	-3
0.95133	-2
0.95500	-3
0.95867	-5
0.96233	-5
0.96600	-5
0.96967	-3
0.97333	-2
0.97700	-1
0.98067	-1
0.98433	-1
0.98800	-0
0.99167	0
0.99533	-0
0.99900	-1
1.00267	-1
1.00633	-2
1.01000	-3
1.01367	-1
1.01733	-1
1.02100	-1
1.02467	-1
1.02833	-2
1.03200	-3
1.03567	-2
1.03933	-2
1.04300	0
1.04667	1
1.05033	-1
1.05400	-1
1.05767	-1
1.06133	-1
1.06500	-2
1.06867	-2
1.07233	-1
1.07600	-1
1.07967	-1
1.08333	-3
1.08700	-5
1.09067	-4
1.09433	-4
1.09800	-6
1.10167	-5
1.10533	-4
1.10900	-3
1.11267	-2
1.11633	1
1.12000	2
1.12367	1
1.12733	1
1.13100	2
1.13467	3
1.13833	5
1.14200	5
1.14567	4
1.14933	4
1.15300	5
1.15667	5
1.16033	7
1.16400	7
1.16767	6
1.17133	5
1.17500	3
1.17867	2
1.18233	2
1.18600	1
1.18967	2
1.19333	2
1.19700	2
1.20067	3
1.20433	5
1.20800	6
1.21167	7
1.21533	8
1.21900	8
1.22267	7
1.22633	7
1.23000	4
1.23367	1
1.23733	-2
1.24100	-3
1.24467	-2
1.24833	2
1.25200	6
1.25567	9
1.25933	11
1.26300	11
1.26667	11
1.27033	10
1.27400	9
1.27767	7
1.28133	7
1.28500	7
1.28867	8
1.29233	11
1.29600	11
1.29967	9
1.30333	7
1.30700	8
1.31067	8
1.31433	9
1.31800	9
1.32167	11
1.32533	13
1.32900	13
1.33267	12
1.33633	11
1.34000	10
1.34367	10
1.34733	9
1.35100	10
1.35467	10
1.35833	9
1.36200	10
1.36567	12
1.36933	11
1.37300	12
1.37667	15
1.38033	17
1.38400	16
1.38767	15
1.39133	14
1.39500	14
1.39867	15
1.40233	17
1.40600	18
1.40967	16
1.41333	14
1.41700	14
1.42067	15
1.42433	16
1.42800	18
1.43167	18
1.43533	18
1.43900	18
1.44267	18
1.44633	18
1.45000	17
1.45367	15
1.45733	15
1.46100	15
1.46467	15
1.46833	14
1.47200	13
1.47567	13
1.47933	13
1.48300	12
1.48667	14
1.49033	15
1.49400	15
1.49767	14
1.50133	13
1.50500	14
1.50867	15
1.51233	16
1.51600	15
1.51967	15
1.52333	14
1.52700	14
1.53067	13
1.53433	13
1.53800	13
1.54167	13
1.54533	14
1.54900	14
1.55267	12
1.55633	11
1.56000	9
1.56367	8
1.56733	9
1.57100	9
1.57467	9
1.57833	10
1.58200	9
1.58567	10
1.58933	12
1.59300	13
1.59667	14
1.60033	14
1.60400	11
1.60767	10
1.61133	11
1.61500	10
1.61867	9
1.62233	9
1.62600	12
1.62967	12
1.63333	11
1.63700	9
1.64067	7
1.64433	7
1.64800	8
1.65167	6
1.65533	5
1.65900	6
1.66267	9
1.66633	9
1.67000	9
1.67367	10
1.67733	11
1.68100	12
1.68467	13
1.68833	15
1.69200	16
1.69567	16
1.69933	17
1.70300	17
1.70667	19
1.71033	22
1.71400	22
1.71767	23
1.72133	23
1.72500	21
1.72867	19
1.73233	19
1.73600	19
1.73967	19
1.74333	19
1.74700	20
1.75067	22
1.75433	23
1.75800	27
1.76167	29
1.76533	29
1.76900	26
1.77267	21
1.77633	20
1.78000	22
1.78367	24
1.78733	25
1.79100	26
1.79467	28
1.79833	29
1.80200	31
1.80567	35
1.80933	39
1.81300	40
1.81667	38
1.82033	36
1.82400	36
1.82767	36
1.83133	37
1.83500	37
1.83867	38
1.84233	38
1.84600	38
1.84967	39
1.85333	41
1.85700	43
1.86067	43
1.86433	44
1.86800	47
1.87167	48
1.87533	49
1.87900	49
1.88267	48
1.88633	50
1.89000	51
1.89367	53
1.89733	53
1.90100	54
1.90467	55
1.90833	55
1.91200	57
1.91567	58
1.91933	59
1.92300	59
1.92667	61
1.93033	63
1.93400	65
1.93767	68
1.94133	70
1.94500	71
1.94867	71
1.95233	72
1.95600	73
1.95967	75
1.96333	76
1.96700	78
1.97067	80
1.97433	82
1.97800	82
1.98167	82
1.98533	83
1.98900	85
1.99267	87
1.99633	88
2.00000	90
2.00367	90
2.00733	90
2.01100	90
2.01467	89
2.01833	91
2.02200	94
2.02567	98
2.02933	101
2.03300	103
2.03667	104
2.04033	102
2.04400	100
2.04767	101
2.05133	103
2.05500	103
2.05867	103
2.06233	104
2.06600	108
2.06967	110
2.07333	111
2.07700	114
2.08067	116
2.08433	118
2.08800	119
2.09167	122
2.09533	123
2.09900	125
2.10267	127
2.10633	126
2.11000	127
2.11367	128
2.11733	128
2.12100	127
2.12467	123
2.12833	122
2.13200	124
2.13567	126
2.13933	127
2.14300	127
2.14667	129
2.15033	131
2.15400	133
2.15767	133
2.16133	132
2.16500	133
2.16867	134
2.17233	136
2.17600	139
2.17967	142
2.18333	143
2.18700	143
2.19067	141
2.19433	139
2.19800	141
2.20167	144
2.20533	146
2.20900	146
2.21267	145
2.21633	148
2.22000	149
2.22367	149
2.22733	149
2.23100	149
2.23467	149
2.23833	150
2.24200	152
2.24567	153
2.24933	155
2.25300	156
2.25667	156
2.26033	156
2.26400	156
2.26767	156
2.27133	160
2.27500	162
2.27867	162
2.28233	163
2.28600	161
2.28967	161
2.29333	160
2.29700	159
2.30067	160
2.30433	161
2.30800	163
2.31167	164
2.31533	165
2.31900	166
2.32267	168
2.32633	169
2.33000	172
2.33367	175
2.33733	178
2.34100	180
2.34467	179
2.34833	180
2.35200	180
2.35567	179
2.35933	178
2.36300	177
2.36667	180
2.37033	184
2.37400	187
2.37767	189
2.38133	189
2.38500	188
2.38867	187
2.39233	186
2.39600	189
2.39967	191
2.40333	194
2.40700	198
2.41067	200
2.41433	205
2.41800	207
2.42167	207
2.42533	206
2.42900	205
2.43267	204
2.43633	204
2.44000	206
2.44367	259
2.44733	397
2.45100	545
2.45467	667
2.45833	731
2.46200	734
2.46567	701
2.46933	665
2.47300	638
2.47667	621
2.48033	604
2.48400	577
2.48767	537
2.49133	492
2.49500	452
2.49867	419
2.50233	394
2.50600	377
2.50967	370
2.51333	374
2.51700	388
2.52067	407
2.52433	424
2.52800	437
2.53167	439
2.53533	426
2.53900	403
2.54267	374
2.54633	347
2.55000	322
2.55367	299
2.55733	279
2.56100	263
2.56467	249
2.56833	238
2.57200	231
2.57567	224
2.57933	222
2.58300	222
2.58667	225
2.59033	226
2.59400	226
2.59767	227
2.60133	226
2.60500	221
2.60867	210
2.61233	197
2.61600	182
2.61967	169
2.62333	159
2.62700	149
2.63067	140
2.63433	133
2.63800	128
2.64167	121
2.64533	114
2.64900	109
2.65267	101
2.65633	93
2.66000	84
2.66367	76
2.66733	68
2.67100	63
2.67467	60
2.67833	55
2.68200	51
2.68567	47
2.68933	45
2.69300	42
2.69667	41
2.70033	41
2.70400	45
2.70767	47
2.71133	51
2.71500	55
2.71867	59
2.72233	63
2.72600	67
2.72967	73
2.73333	78
2.73700	80
2.74067	84
2.74433	87
2.74800	89
2.75167	92
2.75533	94
2.75900	98
2.76267	102
2.76633	105
2.77000	106
2.77367	108
2.77733	110
2.78100	114
2.78467	118
2.78833	123
2.79200	126
2.79567	129
2.79933	134
2.80300	138
2.80667	143
2.81033	148
2.81400	155
2.81767	164
2.82133	174
2.82500	191
2.82867	223
2.83233	283
2.83600	396
2.83967	579
2.84333	853
2.84700	1225
2.85067	1690
2.85433	2228
2.85800	2805
2.86167	3377
2.86533	3898
2.86900	4322
2.87267	4618
2.87633	4774
2.88000	4794
2.88367	4691
2.88733	4491
2.89100	4223
2.89467	3911
2.89833	3578
2.90200	3240
2.90567	2913
2.90933	2604
2.91300	2319
2.91667	2062
2.92033	1827
2.92400	1616
2.92767	1429
2.93133	1264
2.93500	1120
2.93867	993
2.94233	881
2.94600	782
2.94967	698
2.95333	626
2.95700	563
2.96067	506
2.96433	457
2.96800	415
2.97167	380
2.97533	348
2.97900	321
2.98267	299
2.98633	281
2.99000	265
2.99367	250
2.99733	237
3.00100	225
3.00467	213
3.00833	202
3.01200	193
3.01567	184
3.01933	178
3.02300	173
3.02667	168
3.03033	163
3.03400	158
3.03767	154
3.04133	154
3.04500	155
3.04867	154
3.05233	152
3.05600	152
3.05967	153
3.06333	153
3.06700	152
3.07067	152
3.07433	151
3.07800	150
3.08167	149
3.08533	148
3.08900	147
3.09267	147
3.09633	143
3.10000	130
3.10367	105
3.10733	84
3.11100	75
3.11467	75
3.11833	85
3.12200	104
3.12567	134
3.12933	170
3.13300	213
3.13667	260
3.14033	306
3.14400	353
3.14767	394
3.15133	430
3.15500	461
3.15867	489
3.16233	514
3.16600	538
3.16967	559
3.17333	578
3.17700	595
3.18067	609
3.18433	622
3.18800	633
3.19167	643
3.19533	653
3.19900	661
3.20267	669
3.20633	676
3.21000	680
3.21367	685
3.21733	690
3.22100	695
3.22467	701
3.22833	705
3.23200	712
3.23567	719
3.23933	723
3.24300	727
3.24667	731
3.25033	735
3.25400	738
3.25767	740
3.26133	741
3.26500	744
3.26867	749
3.27233	756
3.27600	759
3.27967	761
3.28333	765
3.28700	769
3.29067	770
3.29433	773
3.29800	776
3.30167	778
3.30533	781
3.30900	781
3.31267	783
3.31633	787
3.32000	789
3.32367	790
3.32733	792
3.33100	794
3.33467	797
3.33833	798
3.34200	798
3.34567	796
3.34933	794
3.35300	792
3.35667	789
3.36033	789
3.36400	793
3.36767	797
3.37133	797
3.37500	795
3.37867	794
3.38233	792
3.38600	788
3.38967	784
3.39333	782
3.39700	781
3.40067	779
3.40433	779
3.40800	780
3.41167	781
3.41533	780
3.41900	777
3.42267	775
3.42633	773
3.43000	772
3.43367	770
3.43733	768
3.44100	766
3.44467	765
3.44833	763
3.45200	761
3.45567	759
3.45933	756
3.46300	754
3.46667	752
3.47033	750
3.47400	749
3.47767	748
3.48133	745
3.48500	741
3.48867	740
3.49233	740
3.49600	741
3.49967	741
3.50333	740
3.50700	740
3.51067	736
3.51433	733
3.51800	731
3.52167	731
3.52533	729
3.52900	726
3.53267	725
3.53633	725
3.54000	723
3.54367	720
3.54733	719
3.55100	718
3.55467	718
3.55833	718
3.56200	718
3.56567	717
3.56933	717
3.57300	718
3.57667	716
3.58033	713
3.58400	711
3.58767	710
3.59133	711
3.59500	713
3.59867	713
3.60233	713
3.60600	711
3.60967	708
3.61333	705
3.61700	703
3.62067	701
3.62433	700
3.62800	699
3.63167	697
3.63533	695
3.63900	694
3.64267	692
3.64633	690
3.65000	689
3.65367	689
3.65733	690
3.66100	691
3.66467	690
3.66833	688
3.67200	686
3.67567	684
3.67933	683
3.68300	681
3.68667	680
3.69033	676
3.69400	673
3.69767	671
3.70133	669
3.70500	667
3.70867	667
3.71233	668
3.71600	664
3.71967	659
3.72333	655
3.72700	651
3.73067	648
3.73433	647
3.73800	645
3.74167	643
3.74533	641
3.74900	641
3.75267	639
3.75633	637
3.76000	637
3.76367	635
3.76733	631
3.77100	628
3.77467	625
3.77833	622
3.78200	619
3.78567	617
3.78933	617
3.79300	618
3.79667	618
3.80033	615
3.80400	610
3.80767	606
3.81133	604
3.81500	603
3.81867	603
3.82233	602
3.82600	599
3.82967	594
3.83333	589
3.83700	586
3.84067	584
3.84433	583
3.84800	583
3.85167	583
3.85533	582
3.85900	581
3.86267	581
3.86633	581
3.87000	579
3.87367	576
3.87733	573
3.88100	571
3.88467	570
3.88833	570
3.89200	569
3.89567	568
3.89933	568
3.90300	566
3.90667	562
3.91033	560
3.91400	559
3.91767	560
3.92133	559
3.92500	560
3.92867	560
3.93233	557
3.93600	553
3.93967	550
3.94333	550
3.94700	546
3.95067	541
3.95433	539
3.95800	538
3.96167	539
3.96533	538
3.96900	535
3.97267	531
3.97633	528
3.98000	527
3.98367	525
3.98733	526
3.99100	525
3.99467	527
3.99833	526

[Status Trace (Column Oven Temperature)]
Interval(msec)	1000
# of Points	240
Start Time(min)	0.009
End Time(min)	3.993
Intensity Units	
Intensity Multiplier	1
R.Time (min)	Intensity
0.00937	35.04
0.02603	35.04
0.04270	35.05
0.05937	35.04
0.07603	35.03
0.09270	35.02
0.10937	35.02
0.12603	35.03
0.14270	35.02
0.15937	35.02
0.17603	35.03
0.19270	35.04
0.20937	35.03
0.22603	35.04
0.24270	35.05
0.25937	35.04
0.27603	35.03
0.29270	35.01
0.30937	35.01
0.32603	34.99
0.34270	35.00
0.35937	34.99
0.37603	34.99
0.39270	35.00
0.40937	35.02
0.42603	35.03
0.44270	35.03
0.45937	35.02
0.47603	35.01
0.49270	35.00
0.50937	35.00
0.52603	35.01
0.54270	35.01
0.55937	35.02
0.57603	35.02
0.59270	35.01
0.60937	35.01
0.62603	35.00
0.64270	34.99
0.65937	35.00
0.67603	35.00
0.69270	35.01
0.70937	35.01
0.72603	35.00
0.74270	35.00
0.75937	34.99
0.77603	34.99
0.79270	34.99
0.80937	35.00
0.82603	35.00
0.84270	35.00
0.85937	35.01
0.87603	35.02
0.89270	35.02
0.90937	35.03
0.92603	35.02
0.94270	35.02
0.95937	35.02
0.97603	35.01
0.99270	34.99
1.00937	34.99
1.02603	34.99
1.04270	34.99
1.05937	35.00
1.07603	34.99
1.09270	34.99
1.10937	34.99
1.12603	34.99
1.14270	34.98
1.15937	34.97
1.17603	34.96
1.19270	34.95
1.20937	34.95
1.22603	34.96
1.24270	34.97
1.25937	34.98
1.27603	34.98
1.29270	34.98
1.30937	34.98
1.32603	34.98
1.34270	34.99
1.35937	35.00
1.37603	35.00
1.39270	35.00
1.40937	34.99
1.42603	34.98
1.44270	34.98
1.45937	34.99
1.47603	35.00
1.49270	35.00
1.50937	34.99
1.52603	34.97
1.54270	34.96
1.55937	34.97
1.57603	34.98
1.59270	35.00
1.60937	35.08
1.62603	35.21
1.64270	35.40
1.65937	35.65
1.67603	35.99
1.69270	36.36
1.70937	36.71
1.72603	37.05
1.74270	37.37
1.75937	37.71
1.77603	38.05
1.79270	38.36
1.80937	38.70
1.82603	39.02
1.84270	39.37
1.85937	39.71
1.87603	40.00
1.89270	40.33
1.90937	40.66
1.92603	40.99
1.94270	41.31
1.95937	41.65
1.97603	41.98
1.99270	42.30
2.00937	42.64
2.02603	42.97
2.04270	43.30
2.05937	43.64
2.07603	43.95
2.09270	44.26
2.10937	44.59
2.12603	44.91
2.14270	45.26
2.15937	45.58
2.17603	45.92
2.19270	46.25
2.20937	46.57
2.22603	46.91
2.24270	47.22
2.25937	47.56
2.27603	47.87
2.29270	48.20
2.30937	48.54
2.32603	48.85
2.34270	49.16
2.35937	49.46
2.37603	49.64
2.39270	49.68
2.40937	49.68
2.42603	49.69
2.44270	49.68
2.45937	49.69
2.47603	49.70
2.49270	49.72
2.50937	49.73
2.52603	49.75
2.54270	49.75
2.55937	49.78
2.57603	49.79
2.59270	49.80
2.60937	49.81
2.62603	49.81
2.64270	49.81
2.65937	49.83
2.67603	49.84
2.69270	49.86
2.70937	49.86
2.72603	49.85
2.74270	49.85
2.75937	49.86
2.77603	49.87
2.79270	49.87
2.80937	49.86
2.82603	49.85
2.84270	49.86
2.85937	49.90
2.87603	49.92
2.89270	49.94
2.90937	49.96
2.92603	49.95
2.94270	49.95
2.95937	49.94
2.97603	49.94
2.99270	49.94
3.00937	49.95
3.02603	49.95
3.04270	49.96
3.05937	49.97
3.07603	49.98
3.09270	49.99
3.10937	49.99
3.12603	49.99
3.14270	49.98
3.15937	49.98
3.17603	49.99
3.19270	50.00
3.20937	50.01
3.22603	50.03
3.24270	50.04
3.25937	50.06
3.27603	50.07
3.29270	50.08
3.30937	50.09
3.32603	50.09
3.34270	50.09
3.35937	50.10
3.37603	50.11
3.39270	50.11
3.40937	50.11
3.42603	50.10
3.44270	50.08
3.45937	50.05
3.47603	50.04
3.49270	50.03
3.50937	50.03
3.52603	50.03
3.54270	50.02
3.55937	50.01
3.57603	50.00
3.59270	50.00
3.60937	49.99
3.62603	50.00
3.64270	50.00
3.65937	50.01
3.67603	50.01
3.69270	50.02
3.70937	50.03
3.72603	50.03
3.74270	50.02
3.75937	50.03
3.77603	50.02
3.79270	50.01
3.80937	50.01
3.82603	50.00
3.84270	50.00
3.85937	50.01
3.87603	50.02
3.89270	50.03
3.90937	50.04
3.92603	50.05
3.94270	50.05
3.95937	50.06
3.97603	50.05
3.99270	50.05

[Status Trace (Injection Unit Temperature)]
Interval(msec)	1000
# of Points	240
Start Time(min)	0.009
End Time(min)	3.993
Intensity Units	
Intensity Multiplier	1
R.Time (min)	Intensity
0.00937	99.98
0.02603	99.98
0.04270	99.98
0.05937	99.98
0.07603	99.98
0.09270	99.98
0.10937	99.98
0.12603	99.98
0.14270	99.98
0.15937	99.98
0.17603	99.98
0.19270	99.98
0.20937	99.99
0.22603	99.98
0.24270	99.98
0.25937	99.97
0.27603	99.98
0.29270	99.98
0.30937	99.98
0.32603	99.98
0.34270	99.98
0.35937	99.98
0.37603	99.98
0.39270	99.98
0.40937	99.98
0.42603	99.99
0.44270	99.98
0.45937	99.98
0.47603	99.99
0.49270	99.99
0.50937	99.98
0.52603	99.99
0.54270	99.99
0.55937	99.99
0.57603	99.99
0.59270	99.99
0.60937	99.99
0.62603	99.98
0.64270	99.98
0.65937	99.99
0.67603	99.99
0.69270	99.98
0.70937	99.99
0.72603	99.99
0.74270	99.98
0.75937	99.99
0.77603	99.98
0.79270	99.98
0.80937	99.98
0.82603	99.98
0.84270	99.98
0.85937	99.98
0.87603	99.98
0.89270	99.98
0.90937	99.98
0.92603	99.98
0.94270	99.98
0.95937	99.99
0.97603	99.98
0.99270	99.98
1.00937	99.98
1.02603	99.98
1.04270	99.98
1.05937	99.98
1.07603	99.98
1.09270	99.98
1.10937	99.99
1.12603	99.98
1.14270	99.98
1.15937	99.98
1.17603	99.98
1.19270	99.98
1.20937	99.98
1.22603	99.98
1.24270	99.98
1.25937	99.98
1.27603	99.98
1.29270	99.99
1.30937	99.98
1.32603	99.98
1.34270	99.99
1.35937	99.98
1.37603	99.98
1.39270	99.98
1.40937	99.99
1.42603	99.99
1.44270	99.98
1.45937	99.98
1.47603	99.98
1.49270	99.99
1.50937	99.98
1.52603	99.97
1.54270	99.98
1.55937	99.98
1.57603	99.98
1.59270	99.98
1.60937	99.99
1.62603	99.99
1.64270	99.99
1.65937	99.99
1.67603	99.98
1.69270	99.98
1.70937	99.98
1.72603	99.99
1.74270	99.98
1.75937	99.98
1.77603	99.99
1.79270	99.98
1.80937	99.98
1.82603	99.98
1.84270	99.98
1.85937	99.98
1.87603	99.98
1.89270	99.98
1.90937	99.98
1.92603	99.98
1.94270	99.98
1.95937	99.98
1.97603	99.98
1.99270	99.98
2.00937	99.97
2.02603	99.97
2.04270	99.97
2.05937	99.97
2.07603	99.97
2.09270	99.97
2.10937	99.97
2.12603	99.97
2.14270	99.97
2.15937	99.97
2.17603	99.97
2.19270	99.97
2.20937	99.96
2.22603	99.97
2.24270	99.97
2.25937	99.97
2.27603	99.97
2.29270	99.97
2.30937	99.97
2.32603	99.97
2.34270	99.97
2.35937	99.97
2.37603	99.97
2.39270	99.97
2.40937	99.97
2.42603	99.97
2.44270	99.97
2.45937	99.97
2.47603	99.97
2.49270	99.97
2.50937	99.97
2.52603	99.98
2.54270	99.98
2.55937	99.97
2.57603	99.98
2.59270	99.98
2.60937	99.98
2.62603	99.98
2.64270	99.98
2.65937	99.99
2.67603	99.99
2.69270	99.99
2.70937	99.99
2.72603	99.99
2.74270	99.98
2.75937	99.99
2.77603	99.99
2.79270	99.99
2.80937	99.99
2.82603	100.00
2.84270	100.00
2.85937	100.00
2.87603	100.00
2.89270	100.00
2.90937	100.00
2.92603	100.00
2.94270	100.00
2.95937	100.01
2.97603	100.01
2.99270	100.01
3.00937	100.01
3.02603	100.01
3.04270	100.01
3.05937	100.01
3.07603	100.01
3.09270	100.01
3.10937	100.01
3.12603	100.01
3.14270	100.02
3.15937	100.01
3.17603	100.01
3.19270	100.01
3.20937	100.02
3.22603	100.01
3.24270	100.02
3.25937	100.02
3.27603	100.02
3.29270	100.02
3.30937	100.02
3.32603	100.02
3.34270	100.02
3.35937	100.02
3.37603	100.02
3.39270	100.02
3.40937	100.03
3.42603	100.02
3.44270	100.03
3.45937	100.03
3.47603	100.03
3.49270	100.03
3.50937	100.03
3.52603	100.03
3.54270	100.03
3.55937	100.03
3.57603	100.03
3.59270	100.03
3.60937	100.03
3.62603	100.03
3.64270	100.04
3.65937	100.03
3.67603	100.03
3.69270	100.04
3.70937	100.04
3.72603	100.04
3.74270	100.03
3.75937	100.04
3.77603	100.04
3.79270	100.04
3.80937	100.04
3.82603	100.04
3.84270	100.04
3.85937	100.04
3.87603	100.04
3.89270	100.04
3.90937	100.04
3.92603	100.04
3.94270	100.04
3.95937	100.04
3.97603	100.04
3.99270	100.04

[Status Trace (Carrier Gas Pressure)]
Interval(msec)	1000
# of Points	240
Start Time(min)	0.009
End Time(min)	3.993
Intensity Units	
Intensity Multiplier	1
R.Time (min)	Intensity
0.00937	58.00
0.02603	55.26
0.04270	57.31
0.05937	59.46
0.07603	59.28
0.09270	58.03
0.10937	57.99
0.12603	58.01
0.14270	58.01
0.15937	58.00
0.17603	58.00
0.19270	58.00
0.20937	58.00
0.22603	58.00
0.24270	58.00
0.25937	58.00
0.27603	58.00
0.29270	58.00
0.30937	58.00
0.32603	58.00
0.34270	58.00
0.35937	58.00
0.37603	58.00
0.39270	58.00
0.40937	58.00
0.42603	58.00
0.44270	58.00
0.45937	58.00
0.47603	58.00
0.49270	58.00
0.50937	58.00
0.52603	58.00
0.54270	58.00
0.55937	58.00
0.57603	58.00
0.59270	58.00
0.60937	58.00
0.62603	58.00
0.64270	58.00
0.65937	58.00
0.67603	58.00
0.69270	58.00
0.70937	58.00
0.72603	58.00
0.74270	58.00
0.75937	58.00
0.77603	58.00
0.79270	58.00
0.80937	58.00
0.82603	58.00
0.84270	58.00
0.85937	58.00
0.87603	58.00
0.89270	58.00
0.90937	58.00
0.92603	58.00
0.94270	58.00
0.95937	58.00
0.97603	58.00
0.99270	58.00
1.00937	58.00
1.02603	58.00
1.04270	58.00
1.05937	58.00
1.07603	58.00
1.09270	58.00
1.10937	58.00
1.12603	58.00
1.14270	58.00
1.15937	58.00
1.17603	58.00
1.19270	58.00
1.20937	58.00
1.22603	58.00
1.24270	58.00
1.25937	58.00
1.27603	58.00
1.29270	58.00
1.30937	58.00
1.32603	58.00
1.34270	58.00
1.35937	58.00
1.37603	58.00
1.39270	58.00
1.40937	58.00
1.42603	58.00
1.44270	58.00
1.45937	58.00
1.47603	58.00
1.49270	58.00
1.50937	58.00
1.52603	58.00
1.54270	58.00
1.55937	58.00
1.57603	58.00
1.59270	58.00
1.60937	58.00
1.62603	58.00
1.64270	58.00
1.65937	58.00
1.67603	58.01
1.69270	58.00
1.70937	58.00
1.72603	58.00
1.74270	58.00
1.75937	58.00
1.77603	58.00
1.79270	58.00
1.80937	58.00
1.82603	58.00
1.84270	58.00
1.85937	58.00
1.87603	58.00
1.89270	58.00
1.90937	58.00
1.92603	58.00
1.94270	58.00
1.95937	58.00
1.97603	58.00
1.99270	58.00
2.00937	58.00
2.02603	58.00
2.04270	58.00
2.05937	58.00
2.07603	58.00
2.09270	58.00
2.10937	58.00
2.12603	58.00
2.14270	58.00
2.15937	58.00
2.17603	58.00
2.19270	58.00
2.20937	58.00
2.22603	58.00
2.24270	58.00
2.25937	58.00
2.27603	58.00
2.29270	58.00
2.30937	58.00
2.32603	58.00
2.34270	58.00
2.35937	58.00
2.37603	58.00
2.39270	57.99
2.40937	57.99
2.42603	58.00
2.44270	58.00
2.45937	58.00
2.47603	58.00
2.49270	58.00
2.50937	57.99
2.52603	57.98
2.54270	58.00
2.55937	58.00
2.57603	58.00
2.59270	58.00
2.60937	58.00
2.62603	58.00
2.64270	58.00
2.65937	58.00
2.67603	58.00
2.69270	58.00
2.70937	58.00
2.72603	58.00
2.74270	58.00
2.75937	58.00
2.77603	58.00
2.79270	58.00
2.80937	58.00
2.82603	58.00
2.84270	58.00
2.85937	58.00
2.87603	58.00
2.89270	58.00
2.90937	58.00
2.92603	58.00
2.94270	58.00
2.95937	58.00
2.97603	58.00
2.99270	58.00
3.00937	58.00
3.02603	58.00
3.04270	58.00
3.05937	58.00
3.07603	58.00
3.09270	58.00
3.10937	58.00
3.12603	58.00
3.14270	58.00
3.15937	58.00
3.17603	58.00
3.19270	58.00
3.20937	58.00
3.22603	58.00
3.24270	58.00
3.25937	58.00
3.27603	58.00
3.29270	58.00
3.30937	58.00
3.32603	58.00
3.34270	58.00
3.35937	58.00
3.37603	58.00
3.39270	58.00
3.40937	58.00
3.42603	58.00
3.44270	58.00
3.45937	58.00
3.47603	58.00
3.49270	58.00
3.50937	58.00
3.52603	58.00
3.54270	58.00
3.55937	58.00
3.57603	58.00
3.59270	58.00
3.60937	58.00
3.62603	58.00
3.64270	58.00
3.65937	58.00
3.67603	58.00
3.69270	58.00
3.70937	58.00
3.72603	58.00
3.74270	58.00
3.75937	58.00
3.77603	58.00
3.79270	58.00
3.80937	58.00
3.82603	58.00
3.84270	58.00
3.85937	58.00
3.87603	58.00
3.89270	58.00
3.90937	58.00
3.92603	58.00
3.94270	58.00
3.95937	58.00
3.97603	58.00
3.99270	58.00

[Status Trace (Carrier Gas Flow)]
Interval(msec)	1000
# of Points	240
Start Time(min)	0.009
End Time(min)	3.993
Intensity Units	
Intensity Multiplier	1
R.Time (min)	Intensity
0.00937	34.52
0.02603	34.53
0.04270	34.55
0.05937	34.54
0.07603	34.50
0.09270	34.52
0.10937	34.52
0.12603	34.52
0.14270	34.51
0.15937	34.52
0.17603	34.52
0.19270	34.51
0.20937	34.52
0.22603	34.52
0.24270	34.52
0.25937	34.52
0.27603	34.52
0.29270	34.52
0.30937	34.52
0.32603	34.52
0.34270	34.52
0.35937	34.52
0.37603	34.52
0.39270	34.52
0.40937	34.51
0.42603	34.52
0.44270	34.52
0.45937	34.52
0.47603	34.51
0.49270	34.52
0.50937	34.52
0.52603	34.52
0.54270	34.51
0.55937	34.51
0.57603	34.52
0.59270	34.52
0.60937	34.51
0.62603	34.52
0.64270	34.52
0.65937	34.52
0.67603	34.52
0.69270	34.52
0.70937	34.52
0.72603	34.52
0.74270	34.51
0.75937	34.52
0.77603	34.52
0.79270	34.51
0.80937	34.52
0.82603	34.52
0.84270	34.52
0.85937	34.52
0.87603	34.52
0.89270	34.52
0.90937	34.52
0.92603	34.51
0.94270	34.52
0.95937	34.52
0.97603	34.52
0.99270	34.51
1.00937	34.51
1.02603	34.52
1.04270	34.52
1.05937	34.52
1.07603	34.52
1.09270	34.52
1.10937	34.52
1.12603	34.52
1.14270	34.52
1.15937	34.52
1.17603	34.52
1.19270	34.52
1.20937	34.52
1.22603	34.52
1.24270	34.52
1.25937	34.52
1.27603	34.52
1.29270	34.52
1.30937	34.52
1.32603	34.52
1.34270	34.52
1.35937	34.52
1.37603	34.52
1.39270	34.52
1.40937	34.52
1.42603	34.52
1.44270	34.52
1.45937	34.52
1.47603	34.52
1.49270	34.52
1.50937	34.52
1.52603	34.52
1.54270	34.52
1.55937	34.52
1.57603	34.52
1.59270	34.52
1.60937	34.52
1.62603	34.52
1.64270	34.52
1.65937	34.52
1.67603	34.52
1.69270	34.52
1.70937	34.52
1.72603	34.52
1.74270	34.52
1.75937	34.52
1.77603	34.51
1.79270	34.52
1.80937	34.52
1.82603	34.52
1.84270	34.51
1.85937	34.52
1.87603	34.52
1.89270	34.51
1.90937	34.51
1.92603	34.52
1.94270	34.52
1.95937	34.52
1.97603	34.52
1.99270	34.52
2.00937	34.52
2.02603	34.52
2.04270	34.52
2.05937	34.52
2.07603	34.52
2.09270	34.52
2.10937	34.52
2.12603	34.52
2.14270	34.52
2.15937	34.52
2.17603	34.52
2.19270	34.52
2.20937	34.52
2.22603	34.51
2.24270	34.52
2.25937	34.52
2.27603	34.52
2.29270	34.51
2.30937	34.53
2.32603	34.52
2.34270	34.52
2.35937	34.52
2.37603	34.52
2.39270	34.52
2.40937	34.52
2.42603	34.51
2.44270	34.52
2.45937	34.52
2.47603	34.52
2.49270	34.52
2.50937	34.51
2.52603	34.52
2.54270	34.52
2.55937	34.51
2.57603	34.52
2.59270	34.52
2.60937	34.52
2.62603	34.52
2.64270	34.52
2.65937	34.52
2.67603	34.52
2.69270	34.52
2.70937	34.52
2.72603	34.51
2.74270	34.52
2.75937	34.52
2.77603	34.52
2.79270	34.52
2.80937	34.52
2.82603	34.51
2.84270	34.52
2.85937	34.52
2.87603	34.52
2.89270	34.52
2.90937	34.52
2.92603	34.52
2.94270	34.52
2.95937	34.52
2.97603	34.52
2.99270	34.52
3.00937	34.51
3.02603	34.51
3.04270	34.52
3.05937	34.52
3.07603	34.52
3.09270	34.51
3.10937	34.53
3.12603	34.52
3.14270	34.53
3.15937	34.52
3.17603	34.52
3.19270	34.52
3.20937	34.53
3.22603	34.52
3.24270	34.51
3.25937	34.51
3.27603	34.51
3.29270	34.52
3.30937	34.52
3.32603	34.52
3.34270	34.52
3.35937	34.52
3.37603	34.52
3.39270	34.52
3.40937	34.52
3.42603	34.52
3.44270	34.52
3.45937	34.52
3.47603	34.52
3.49270	34.52
3.50937	34.52
3.52603	34.52
3.54270	34.52
3.55937	34.52
3.57603	34.52
3.59270	34.52
3.60937	34.52
3.62603	34.52
3.64270	34.53
3.65937	34.52
3.67603	34.52
3.69270	34.51
3.70937	34.52
3.72603	34.52
3.74270	34.52
3.75937	34.51
3.77603	34.52
3.79270	34.52
3.80937	34.51
3.82603	34.52
3.84270	34.52
3.85937	34.52
3.87603	34.52
3.89270	34.52
3.90937	34.52
3.92603	34.52
3.94270	34.51
3.95937	34.52
3.97603	34.52
3.99270	34.52

[Status Trace (Column Flow)]
Interval(msec)	1000
# of Points	240
Start Time(min)	0.009
End Time(min)	3.993
Intensity Units	
Intensity Multiplier	1
R.Time (min)	Intensity
0.00937	5.53
0.02603	5.22
0.04270	5.45
0.05937	5.70
0.07603	5.68
0.09270	5.54
0.10937	5.53
0.12603	5.54
0.14270	5.54
0.15937	5.53
0.17603	5.53
0.19270	5.53
0.20937	5.53
0.22603	5.53
0.24270	5.53
0.25937	5.53
0.27603	5.53
0.29270	5.53
0.30937	5.53
0.32603	5.54
0.34270	5.54
0.35937	5.54
0.37603	5.54
0.39270	5.53
0.40937	5.53
0.42603	5.53
0.44270	5.53
0.45937	5.53
0.47603	5.53
0.49270	5.53
0.50937	5.54
0.52603	5.53
0.54270	5.53
0.55937	5.53
0.57603	5.53
0.59270	5.53
0.60937	5.53
0.62603	5.54
0.64270	5.54
0.65937	5.53
0.67603	5.53
0.69270	5.53
0.70937	5.53
0.72603	5.53
0.74270	5.53
0.75937	5.53
0.77603	5.53
0.79270	5.53
0.80937	5.53
0.82603	5.53
0.84270	5.53
0.85937	5.53
0.87603	5.53
0.89270	5.53
0.90937	5.53
0.92603	5.53
0.94270	5.53
0.95937	5.53
0.97603	5.53
0.99270	5.53
1.00937	5.54
1.02603	5.54
1.04270	5.54
1.05937	5.53
1.07603	5.54
1.09270	5.54
1.10937	5.54
1.12603	5.54
1.14270	5.54
1.15937	5.54
1.17603	5.54
1.19270	5.54
1.20937	5.54
1.22603	5.54
1.24270	5.54
1.25937	5.54
1.27603	5.54
1.29270	5.54
1.30937	5.54
1.32603	5.54
1.34270	5.54
1.35937	5.53
1.37603	5.53
1.39270	5.53
1.40937	5.53
1.42603	5.54
1.44270	5.54
1.45937	5.54
1.47603	5.53
1.49270	5.53
1.50937	5.54
1.52603	5.54
1.54270	5.54
1.55937	5.54
1.57603	5.54
1.59270	5.54
1.60937	5.53
1.62603	5.53
1.64270	5.52
1.65937	5.52
1.67603	5.50
1.69270	5.49
1.70937	5.48
1.72603	5.47
1.74270	5.46
1.75937	5.45
1.77603	5.44
1.79270	5.43
1.80937	5.42
1.82603	5.41
1.84270	5.40
1.85937	5.39
1.87603	5.38
1.89270	5.37
1.90937	5.36
1.92603	5.35
1.94270	5.34
1.95937	5.33
1.97603	5.32
1.99270	5.31
2.00937	5.30
2.02603	5.29
2.04270	5.28
2.05937	5.27
2.07603	5.26
2.09270	5.25
2.10937	5.24
2.12603	5.23
2.14270	5.22
2.15937	5.22
2.17603	5.21
2.19270	5.20
2.20937	5.19
2.22603	5.18
2.24270	5.17
2.25937	5.16
2.27603	5.15
2.29270	5.14
2.30937	5.13
2.32603	5.12
2.34270	5.11
2.35937	5.11
2.37603	5.10
2.39270	5.10
2.40937	5.10
2.42603	5.10
2.44270	5.10
2.45937	5.10
2.47603	5.10
2.49270	5.10
2.50937	5.10
2.52603	5.10
2.54270	5.10
2.55937	5.10
2.57603	5.10
2.59270	5.10
2.60937	5.10
2.62603	5.10
2.64270	5.10
2.65937	5.10
2.67603	5.10
2.69270	5.09
2.70937	5.09
2.72603	5.09
2.74270	5.10
2.75937	5.09
2.77603	5.09
2.79270	5.09
2.80937	5.09
2.82603	5.10
2.84270	5.09
2.85937	5.09
2.87603	5.09
2.89270	5.09
2.90937	5.09
2.92603	5.09
2.94270	5.09
2.95937	5.09
2.97603	5.09
2.99270	5.09
3.00937	5.09
3.02603	5.09
3.04270	5.09
3.05937	5.09
3.07603	5.09
3.09270	5.09
3.10937	5.09
3.12603	5.09
3.14270	5.09
3.15937	5.09
3.17603	5.09
3.19270	5.09
3.20937	5.09
3.22603	5.09
3.24270	5.09
3.25937	5.09
3.27603	5.09
3.29270	5.09
3.30937	5.09
3.32603	5.09
3.34270	5.09
3.35937	5.09
3.37603	5.09
3.39270	5.09
3.40937	5.09
3.42603	5.09
3.44270	5.09
3.45937	5.09
3.47603	5.09
3.49270	5.09
3.50937	5.09
3.52603	5.09
3.54270	5.09
3.55937	5.09
3.57603	5.09
3.59270	5.09
3.60937	5.09
3.62603	5.09
3.64270	5.09
3.65937	5.09
3.67603	5.09
3.69270	5.09
3.70937	5.09
3.72603	5.09
3.74270	5.09
3.75937	5.09
3.77603	5.09
3.79270	5.09
3.80937	5.09
3.82603	5.09
3.84270	5.09
3.85937	5.09
3.87603	5.09
3.89270	5.09
3.90937	5.09
3.92603	5.09
3.94270	5.09
3.95937	5.09
3.97603	5.09
3.99270	5.09

[Status Trace (Linear Velocity)]
Interval(msec)	1000
# of Points	240
Start Time(min)	0.009
End Time(min)	3.993
Intensity Units	
Intensity Multiplier	1
R.Time (min)	Intensity
0.00937	39.02
0.02603	37.21
0.04270	38.56
0.05937	39.97
0.07603	39.85
0.09270	39.04
0.10937	39.01
0.12603	39.02
0.14270	39.02
0.15937	39.02
0.17603	39.02
0.19270	39.02
0.20937	39.02
0.22603	39.02
0.24270	39.02
0.25937	39.02
0.27603	39.02
0.29270	39.02
0.30937	39.02
0.32603	39.02
0.34270	39.02
0.35937	39.02
0.37603	39.02
0.39270	39.02
0.40937	39.02
0.42603	39.02
0.44270	39.02
0.45937	39.02
0.47603	39.02
0.49270	39.02
0.50937	39.02
0.52603	39.02
0.54270	39.02
0.55937	39.02
0.57603	39.02
0.59270	39.02
0.60937	39.02
0.62603	39.02
0.64270	39.02
0.65937	39.02
0.67603	39.02
0.69270	39.02
0.70937	39.02
0.72603	39.02
0.74270	39.02
0.75937	39.02
0.77603	39.02
0.79270	39.02
0.80937	39.02
0.82603	39.02
0.84270	39.02
0.85937	39.02
0.87603	39.02
0.89270	39.02
0.90937	39.02
0.92603	39.02
0.94270	39.02
0.95937	39.02
0.97603	39.02
0.99270	39.02
1.00937	39.02
1.02603	39.02
1.04270	39.02
1.05937	39.02
1.07603	39.02
1.09270	39.02
1.10937	39.02
1.12603	39.02
1.14270	39.02
1.15937	39.02
1.17603	39.02
1.19270	39.02
1.20937	39.03
1.22603	39.02
1.24270	39.02
1.25937	39.02
1.27603	39.02
1.29270	39.02
1.30937	39.02
1.32603	39.02
1.34270	39.02
1.35937	39.02
1.37603	39.02
1.39270	39.02
1.40937	39.02
1.42603	39.02
1.44270	39.02
1.45937	39.02
1.47603	39.02
1.49270	39.02
1.50937	39.02
1.52603	39.02
1.54270	39.02
1.55937	39.02
1.57603	39.02
1.59270	39.02
1.60937	39.01
1.62603	39.00
1.64270	38.98
1.65937	38.96
1.67603	38.93
1.69270	38.89
1.70937	38.86
1.72603	38.82
1.74270	38.79
1.75937	38.76
1.77603	38.73
1.79270	38.70
1.80937	38.67
1.82603	38.64
1.84270	38.60
1.85937	38.57
1.87603	38.54
1.89270	38.51
1.90937	38.48
1.92603	38.45
1.94270	38.42
1.95937	38.39
1.97603	38.36
1.99270	38.33
2.00937	38.30
2.02603	38.27
2.04270	38.24
2.05937	38.21
2.07603	38.18
2.09270	38.15
2.10937	38.12
2.12603	38.09
2.14270	38.06
2.15937	38.03
2.17603	38.00
2.19270	37.97
2.20937	37.94
2.22603	37.91
2.24270	37.88
2.25937	37.85
2.27603	37.82
2.29270	37.80
2.30937	37.77
2.32603	37.74
2.34270	37.71
2.35937	37.68
2.37603	37.66
2.39270	37.66
2.40937	37.66
2.42603	37.66
2.44270	37.66
2.45937	37.66
2.47603	37.66
2.49270	37.66
2.50937	37.66
2.52603	37.65
2.54270	37.66
2.55937	37.66
2.57603	37.65
2.59270	37.65
2.60937	37.65
2.62603	37.65
2.64270	37.65
2.65937	37.65
2.67603	37.65
2.69270	37.65
2.70937	37.65
2.72603	37.65
2.74270	37.65
2.75937	37.65
2.77603	37.65
2.79270	37.65
2.80937	37.65
2.82603	37.65
2.84270	37.65
2.85937	37.65
2.87603	37.64
2.89270	37.64
2.90937	37.64
2.92603	37.64
2.94270	37.64
2.95937	37.64
2.97603	37.64
2.99270	37.64
3.00937	37.64
3.02603	37.64
3.04270	37.64
3.05937	37.64
3.07603	37.64
3.09270	37.64
3.10937	37.64
3.12603	37.64
3.14270	37.64
3.15937	37.64
3.17603	37.64
3.19270	37.64
3.20937	37.63
3.22603	37.63
3.24270	37.63
3.25937	37.63
3.27603	37.63
3.29270	37.63
3.30937	37.63
3.32603	37.63
3.34270	37.63
3.35937	37.63
3.37603	37.63
3.39270	37.63
3.40937	37.63
3.42603	37.63
3.44270	37.63
3.45937	37.63
3.47603	37.63
3.49270	37.63
3.50937	37.63
3.52603	37.63
3.54270	37.63
3.55937	37.63
3.57603	37.64
3.59270	37.64
3.60937	37.64
3.62603	37.64
3.64270	37.64
3.65937	37.64
3.67603	37.63
3.69270	37.63
3.70937	37.63
3.72603	37.63
3.74270	37.63
3.75937	37.63
3.77603	37.63
3.79270	37.63
3.80937	37.64
3.82603	37.64
3.84270	37.64
3.85937	37.64
3.87603	37.63
3.89270	37.63
3.90937	37.63
3.92603	37.63
3.94270	37.63
3.95937	37.63
3.97603	37.63
3.99270	37.63

