[Header]
Application Name	LabSolutions
Version	5.110
Data File Name	C:\Users\User\Desktop\GC Analyses\Jack\Nachusa Grasslands Sampling\T3 Timepoint July 12th\T3_07122022_046.gcd
Output Date	3/14/2023
Output Time	3:43:33 PM

[File Information]
Type	Data File
Generated	3/13/2023 7:34:28 PM
Generated by	System Administrator
Modified	3/13/2023 7:41:18 PM
Modified by	System Administrator

[Sample Information]
Operator Name	System Administrator
Acquired	3/13/2023 7:37:16 PM
Sample Type	0:Unknown
Level	0
Sample Name	046
Sample ID	046
ISTD Amount1	1
ISTD Amount2	1
ISTD Amount3	1
ISTD Amount4	1
ISTD Amount5	1
ISTD Amount6	1
ISTD Amount7	1
ISTD Amount8	1
ISTD Amount9	1
ISTD Amount10	1
ISTD Amount11	1
ISTD Amount12	1
ISTD Amount13	1
ISTD Amount14	1
ISTD Amount15	1
ISTD Amount16	1
ISTD Amount17	1
ISTD Amount18	1
ISTD Amount19	1
ISTD Amount20	1
ISTD Amount21	1
ISTD Amount22	1
ISTD Amount23	1
ISTD Amount24	1
ISTD Amount25	1
ISTD Amount26	1
ISTD Amount27	1
ISTD Amount28	1
ISTD Amount29	1
ISTD Amount30	1
ISTD Amount31	1
ISTD Amount32	1
Sample Amount	1
Dilution Factor	1
Vial#	45
Injection Volume	1
Injection Count	1
Bar Code	

[Original Files]
Data File	C:\Users\User\Desktop\GC Analyses\Jack\Nachusa Grasslands Sampling\T3 Timepoint July 12th\T3_07122022_046.gcd
Method File	C:\LabSolutions\Data\GHG_4min_2022\ghg3_togas_w_acet_4 min_new_int.gcm
Batch File	C:\LabSolutions\Data\AutoSamplerTesting\T3_07122022.gcb
Report Format File	c:\LabSolutions\System\DEFAULT.lsr

[File Description]


[Configuration]
Instrument Name	C0B7VH3-Instrument1
Instrument #	1
Line #	1
# of Detectors	3
Detector ID	DET#1	DET#2	DET#3
Detector Name	FID	PTCD	ECD
# of Channels	1	1	1

[Peak Table(Ch1)]
# of Peaks	3
Peak#	R.Time	I.Time	F.Time	Area	Height	A/H	Conc.	Mark	ID#	Name	k'	Plate #	Plate Ht.	Tailing	Resolution	Sep.Factor	Area Ratio	Height Ratio	Conc. %	Norm Conc.
1	1.476	1.417	1.534	23952	11792	2.031	169.099	   	1	CO	0.000	9550	15.706	1.210	0.000	0.000	0	0	24.042	24.042
2	1.571	1.538	1.615	3804	2000	1.903	73.558	   	2	CH4	0.065	12055	12.443	1.116	1.621	0.000	0	0	10.458	10.458
3	1.996	1.952	2.264	1835618	884143	2.076	460.690	   	3	CO2	0.353	17576	8.535	1.333	7.242	5.462	0	0	65.500	65.500

[Peak Table(Ch2)]
# of Peaks	0

[Peak Table(Ch3)]
# of Peaks	6
Peak#	R.Time	I.Time	F.Time	Area	Height	A/H	Conc.	Mark	ID#	Name	k'	Plate #	Plate Ht.	Tailing	Resolution	Sep.Factor	Area Ratio	Height Ratio	Conc. %	Norm Conc.
1	2.462	2.440	2.510	1477	545	2.712	0.000	   			0.000	12803	11.716	0.000	0.000	0.000	0	0	0.000	0.000
2	2.528	2.510	2.579	808	292	2.766	0.000	 V 			0.027	8034	18.671	0.000	0.660	0.000	0	0	0.000	0.000
3	2.605	2.579	2.675	439	110	3.978	0.000	 V 			0.058	1295	115.812	0.000	0.383	2.167	0	0	0.000	0.000
4	2.880	2.810	3.111	18014	4744	3.797	0.460	S  	1	N2O	0.170	13432	11.168	1.543	1.414	2.923	0	0	100.000	100.000
5	3.100	3.045	3.111	89	44	2.000	0.000	T  	2	SF6	0.259	45109	3.325	0.601	2.789	1.526	0	0	0.000	0.000
6	3.294	3.118	3.995	19707	653	30.168	0.000	   	2	SF6	0.338	212	707.225	2.430	0.404	1.305	0	0	0.000	0.000

[Compound Results(Ch1)]
# of IDs	6
ID#	Name	R.Time	Area	Height	Conc.	Curve	3rd	2nd	1st	Constant	Area Ratio	Height Ratio	Conc. %	Norm Conc.
1	CO	1.476	23952	11792	169.099	Linear	0.000000e+00	0.000000e+00	1.416423e+002	0.000000e+00	0	0	24.042	24.042
2	CH4	1.571	3804	2000	73.558	Linear	0.000000e+00	0.000000e+00	5.171738e+001	0.000000e+00	0	0	10.458	10.458
3	CO2	1.996	1835618	884143	460.690	Linear	0.000000e+00	0.000000e+00	3.984494e+003	0.000000e+00	0	0	65.500	65.500
4	Ethylene	0.000	0	0	0.000	Linear	0.000000e+00	0.000000e+00	0.000000e+00	0.000000e+00	0	0	0.000	0.000
5	Acetylene	0.000	0	0	0.000	Linear	0.000000e+00	0.000000e+00	0.000000e+00	0.000000e+00	0	0	0.000	0.000
6	Ethane	0.000	0	0	0.000	Linear	0.000000e+00	0.000000e+00	0.000000e+00	0.000000e+00	0	0	0.000	0.000

[Compound Results(Ch2)]
# of IDs	5
ID#	Name	R.Time	Area	Height	Conc.	Curve	3rd	2nd	1st	Constant	Area Ratio	Height Ratio	Conc. %	Norm Conc.
1	Hydrogen	0.000	0	0	0.000	Linear	0.000000e+00	0.000000e+00	0.000000e+00	0.000000e+00	0	0	0.000	0.000
2	Oxygen	0.000	0	0	0.000	Linear	0.000000e+00	0.000000e+00	0.000000e+00	0.000000e+00	0	0	0.000	0.000
3	Nitrogen	0.000	0	0	0.000	Linear	0.000000e+00	0.000000e+00	0.000000e+00	0.000000e+00	0	0	0.000	0.000
4	Methane	0.000	0	0	0.000	Linear	0.000000e+00	0.000000e+00	0.000000e+00	0.000000e+00	0	0	0.000	0.000
5	Carbon Monoxide	0.000	0	0	0.000	Linear	0.000000e+00	0.000000e+00	0.000000e+00	0.000000e+00	0	0	0.000	0.000

[Compound Results(Ch3)]
# of IDs	2
ID#	Name	R.Time	Area	Height	Conc.	Curve	3rd	2nd	1st	Constant	Area Ratio	Height Ratio	Conc. %	Norm Conc.
1	N2O	2.880	18014	4744	0.460	Linear	0.000000e+00	0.000000e+00	3.915173e+004	0.000000e+00	0	0	100.000	100.000
2	SF6	3.294	19795	698	0.000	Linear	0.000000e+00	0.000000e+00	0.000000e+00	0.000000e+00	0	0	0.000	0.000

[Group Results(Ch1)]
# of Groups	0

[Group Results(Ch2)]
# of Groups	0

[Group Results(Ch3)]
# of Groups	0

[Chromatogram (Ch1)]
Interval(msec)	220
# of Points	1091
Start Time(min)	0.002
End Time(min)	3.998
R.Time (min)	Intensity
0.00167	4
0.00533	-4
0.00900	-10
0.01267	-11
0.01633	-9
0.02000	-2
0.02367	8
0.02733	12
0.03100	9
0.03467	3
0.03833	-2
0.04200	-3
0.04567	-1
0.04933	3
0.05300	7
0.05667	8
0.06033	9
0.06400	13
0.06767	21
0.07133	29
0.07500	36
0.07867	44
0.08233	53
0.08600	58
0.08967	56
0.09333	50
0.09700	44
0.10067	41
0.10433	46
0.10800	52
0.11167	51
0.11533	49
0.11900	47
0.12267	52
0.12633	59
0.13000	62
0.13367	64
0.13733	66
0.14100	68
0.14467	66
0.14833	63
0.15200	63
0.15567	61
0.15933	61
0.16300	61
0.16667	62
0.17033	65
0.17400	67
0.17767	62
0.18133	52
0.18500	44
0.18867	37
0.19233	28
0.19600	19
0.19967	18
0.20333	17
0.20700	16
0.21067	14
0.21433	13
0.21800	17
0.22167	25
0.22533	26
0.22900	22
0.23267	19
0.23633	16
0.24000	16
0.24367	17
0.24733	17
0.25100	13
0.25467	9
0.25833	9
0.26200	8
0.26567	2
0.26933	-6
0.27300	-12
0.27667	-13
0.28033	-12
0.28400	-8
0.28767	-0
0.29133	13
0.29500	22
0.29867	24
0.30233	23
0.30600	24
0.30967	29
0.31333	36
0.31700	39
0.32067	38
0.32433	32
0.32800	24
0.33167	14
0.33533	7
0.33900	3
0.34267	3
0.34633	2
0.35000	-0
0.35367	-2
0.35733	-4
0.36100	-4
0.36467	-6
0.36833	-7
0.37200	-7
0.37567	1
0.37933	5
0.38300	7
0.38667	9
0.39033	5
0.39400	2
0.39767	8
0.40133	15
0.40500	19
0.40867	20
0.41233	17
0.41600	10
0.41967	3
0.42333	1
0.42700	4
0.43067	14
0.43433	19
0.43800	18
0.44167	13
0.44533	8
0.44900	4
0.45267	2
0.45633	-1
0.46000	-2
0.46367	-1
0.46733	6
0.47100	11
0.47467	9
0.47833	2
0.48200	-3
0.48567	-11
0.48933	-16
0.49300	-15
0.49667	-12
0.50033	-3
0.50400	6
0.50767	16
0.51133	21
0.51500	19
0.51867	14
0.52233	10
0.52600	5
0.52967	-2
0.53333	-11
0.53700	-18
0.54067	-17
0.54433	-9
0.54800	1
0.55167	5
0.55533	4
0.55900	-1
0.56267	-6
0.56633	-9
0.57000	-10
0.57367	-13
0.57733	-14
0.58100	-13
0.58467	-9
0.58833	-0
0.59200	7
0.59567	10
0.59933	12
0.60300	14
0.60667	11
0.61033	4
0.61400	-3
0.61767	-8
0.62133	-9
0.62500	-8
0.62867	-5
0.63233	-5
0.63600	-5
0.63967	-5
0.64333	-1
0.64700	6
0.65067	10
0.65433	8
0.65800	3
0.66167	-1
0.66533	-3
0.66900	-4
0.67267	-3
0.67633	-0
0.68000	0
0.68367	0
0.68733	-0
0.69100	4
0.69467	8
0.69833	10
0.70200	9
0.70567	9
0.70933	9
0.71300	11
0.71667	9
0.72033	6
0.72400	3
0.72767	6
0.73133	6
0.73500	0
0.73867	-5
0.74233	-6
0.74600	-0
0.74967	7
0.75333	7
0.75700	2
0.76067	-0
0.76433	3
0.76800	8
0.77167	11
0.77533	10
0.77900	6
0.78267	-1
0.78633	-6
0.79000	-10
0.79367	-14
0.79733	-15
0.80100	-12
0.80467	-7
0.80833	-1
0.81200	2
0.81567	2
0.81933	1
0.82300	-0
0.82667	-0
0.83033	-2
0.83400	-4
0.83767	-6
0.84133	-9
0.84500	-8
0.84867	-8
0.85233	-10
0.85600	-13
0.85967	-14
0.86333	-12
0.86700	-7
0.87067	4
0.87433	16
0.87800	22
0.88167	18
0.88533	10
0.88900	1
0.89267	-10
0.89633	-21
0.90000	-29
0.90367	-30
0.90733	-22
0.91100	-13
0.91467	-5
0.91833	1
0.92200	3
0.92567	1
0.92933	-0
0.93300	2
0.93667	8
0.94033	15
0.94400	14
0.94767	9
0.95133	2
0.95500	-3
0.95867	-3
0.96233	1
0.96600	9
0.96967	17
0.97333	20
0.97700	23
0.98067	27
0.98433	28
0.98800	29
0.99167	27
0.99533	28
0.99900	33
1.00267	40
1.00633	43
1.01000	45
1.01367	46
1.01733	45
1.02100	43
1.02467	37
1.02833	32
1.03200	30
1.03567	27
1.03933	24
1.04300	27
1.04667	36
1.05033	43
1.05400	40
1.05767	30
1.06133	21
1.06500	16
1.06867	17
1.07233	16
1.07600	14
1.07967	11
1.08333	8
1.08700	6
1.09067	6
1.09433	8
1.09800	10
1.10167	11
1.10533	13
1.10900	15
1.11267	20
1.11633	28
1.12000	32
1.12367	33
1.12733	29
1.13100	22
1.13467	12
1.13833	5
1.14200	5
1.14567	8
1.14933	10
1.15300	9
1.15667	5
1.16033	4
1.16400	8
1.16767	13
1.17133	14
1.17500	15
1.17867	15
1.18233	14
1.18600	9
1.18967	9
1.19333	9
1.19700	8
1.20067	7
1.20433	5
1.20800	2
1.21167	2
1.21533	2
1.21900	6
1.22267	10
1.22633	16
1.23000	23
1.23367	30
1.23733	34
1.24100	36
1.24467	35
1.24833	29
1.25200	24
1.25567	22
1.25933	16
1.26300	9
1.26667	1
1.27033	-6
1.27400	-8
1.27767	-11
1.28133	-18
1.28500	-25
1.28867	-23
1.29233	-15
1.29600	-7
1.29967	0
1.30333	5
1.30700	7
1.31067	11
1.31433	12
1.31800	8
1.32167	6
1.32533	5
1.32900	-3
1.33267	-10
1.33633	-11
1.34000	-9
1.34367	-9
1.34733	-6
1.35100	-2
1.35467	5
1.35833	15
1.36200	27
1.36567	31
1.36933	26
1.37300	15
1.37667	3
1.38033	-5
1.38400	-10
1.38767	-11
1.39133	-10
1.39500	-8
1.39867	-9
1.40233	-14
1.40600	-21
1.40967	-31
1.41333	-38
1.41700	-35
1.42067	-27
1.42433	-20
1.42800	-15
1.43167	-15
1.43533	-15
1.43900	-7
1.44267	42
1.44633	226
1.45000	711
1.45367	1778
1.45733	3599
1.46100	5870
1.46467	8076
1.46833	9880
1.47200	11126
1.47567	11704
1.47933	11507
1.48300	10522
1.48667	8939
1.49033	7084
1.49400	5288
1.49767	3755
1.50133	2553
1.50500	1669
1.50867	1042
1.51233	608
1.51600	315
1.51967	124
1.52333	9
1.52700	-61
1.53067	-107
1.53433	-140
1.53800	-156
1.54167	-127
1.54533	-2
1.54900	259
1.55267	629
1.55633	1026
1.56000	1377
1.56367	1654
1.56733	1830
1.57100	1864
1.57467	1735
1.57833	1473
1.58200	1145
1.58567	821
1.58933	548
1.59300	332
1.59667	173
1.60033	63
1.60400	-9
1.60767	-57
1.61133	-90
1.61500	-108
1.61867	-113
1.62233	-111
1.62600	-108
1.62967	-107
1.63333	-108
1.63700	-111
1.64067	-111
1.64433	-106
1.64800	-102
1.65167	-98
1.65533	-94
1.65900	-95
1.66267	-98
1.66633	-101
1.67000	-102
1.67367	-99
1.67733	-96
1.68100	-94
1.68467	-93
1.68833	-92
1.69200	-90
1.69567	-87
1.69933	-89
1.70300	-92
1.70667	-93
1.71033	-91
1.71400	-86
1.71767	-83
1.72133	-84
1.72500	-81
1.72867	-75
1.73233	-70
1.73600	-67
1.73967	-65
1.74333	-66
1.74700	-69
1.75067	-72
1.75433	-75
1.75800	-79
1.76167	-83
1.76533	-86
1.76900	-86
1.77267	-83
1.77633	-81
1.78000	-79
1.78367	-79
1.78733	-79
1.79100	-78
1.79467	-73
1.79833	-71
1.80200	-73
1.80567	-74
1.80933	-70
1.81300	-63
1.81667	-62
1.82033	-65
1.82400	-67
1.82767	-67
1.83133	-68
1.83500	-71
1.83867	-75
1.84233	-77
1.84600	-79
1.84967	-81
1.85333	-84
1.85700	-88
1.86067	-87
1.86433	-83
1.86800	-81
1.87167	-77
1.87533	-72
1.87900	-68
1.88267	-66
1.88633	-62
1.89000	-52
1.89367	-49
1.89733	-53
1.90100	-55
1.90467	-55
1.90833	-53
1.91200	-49
1.91567	-48
1.91933	-51
1.92300	-55
1.92667	-58
1.93033	-59
1.93400	-59
1.93767	-56
1.94133	-52
1.94500	-50
1.94867	-46
1.95233	-34
1.95600	60
1.95967	629
1.96333	3420
1.96700	13845
1.97067	43522
1.97433	108910
1.97800	221218
1.98167	374269
1.98533	544418
1.98900	701887
1.99267	821113
1.99633	884150
2.00000	883169
2.00367	821762
2.00733	714822
2.01100	584401
2.01467	452571
2.01833	335320
2.02200	240286
2.02567	168281
2.02933	116283
2.03300	79955
2.03667	55119
2.04033	38350
2.04400	27087
2.04767	19513
2.05133	14391
2.05500	10885
2.05867	8447
2.06233	6723
2.06600	5485
2.06967	4573
2.07333	3884
2.07700	3356
2.08067	2939
2.08433	2601
2.08800	2321
2.09167	2085
2.09533	1881
2.09900	1704
2.10267	1557
2.10633	1435
2.11000	1330
2.11367	1239
2.11733	1155
2.12100	1083
2.12467	1023
2.12833	971
2.13200	921
2.13567	873
2.13933	831
2.14300	791
2.14667	751
2.15033	713
2.15400	678
2.15767	646
2.16133	619
2.16500	594
2.16867	567
2.17233	540
2.17600	521
2.17967	508
2.18333	498
2.18700	484
2.19067	466
2.19433	444
2.19800	419
2.20167	396
2.20533	380
2.20900	372
2.21267	369
2.21633	365
2.22000	357
2.22367	346
2.22733	337
2.23100	328
2.23467	318
2.23833	311
2.24200	303
2.24567	291
2.24933	279
2.25300	268
2.25667	258
2.26033	252
2.26400	250
2.26767	250
2.27133	248
2.27500	248
2.27867	252
2.28233	259
2.28600	268
2.28967	274
2.29333	274
2.29700	264
2.30067	247
2.30433	229
2.30800	218
2.31167	214
2.31533	210
2.31900	206
2.32267	197
2.32633	185
2.33000	174
2.33367	166
2.33733	162
2.34100	161
2.34467	162
2.34833	167
2.35200	172
2.35567	178
2.35933	188
2.36300	198
2.36667	201
2.37033	199
2.37400	192
2.37767	186
2.38133	176
2.38500	168
2.38867	160
2.39233	154
2.39600	150
2.39967	151
2.40333	152
2.40700	153
2.41067	155
2.41433	154
2.41800	155
2.42167	153
2.42533	150
2.42900	149
2.43267	151
2.43633	157
2.44000	163
2.44367	166
2.44733	167
2.45100	168
2.45467	169
2.45833	170
2.46200	169
2.46567	167
2.46933	162
2.47300	157
2.47667	157
2.48033	161
2.48400	164
2.48767	164
2.49133	161
2.49500	154
2.49867	151
2.50233	146
2.50600	142
2.50967	139
2.51333	139
2.51700	141
2.52067	143
2.52433	148
2.52800	152
2.53167	151
2.53533	152
2.53900	152
2.54267	152
2.54633	152
2.55000	151
2.55367	150
2.55733	148
2.56100	150
2.56467	154
2.56833	157
2.57200	160
2.57567	164
2.57933	167
2.58300	170
2.58667	171
2.59033	169
2.59400	165
2.59767	162
2.60133	158
2.60500	156
2.60867	155
2.61233	153
2.61600	151
2.61967	152
2.62333	155
2.62700	158
2.63067	168
2.63433	177
2.63800	178
2.64167	178
2.64533	179
2.64900	176
2.65267	172
2.65633	170
2.66000	168
2.66367	161
2.66733	157
2.67100	156
2.67467	157
2.67833	158
2.68200	159
2.68567	159
2.68933	155
2.69300	150
2.69667	150
2.70033	153
2.70400	158
2.70767	163
2.71133	171
2.71500	179
2.71867	189
2.72233	196
2.72600	200
2.72967	203
2.73333	203
2.73700	205
2.74067	203
2.74433	192
2.74800	184
2.75167	182
2.75533	185
2.75900	190
2.76267	194
2.76633	196
2.77000	197
2.77367	200
2.77733	203
2.78100	204
2.78467	204
2.78833	205
2.79200	209
2.79567	211
2.79933	210
2.80300	204
2.80667	197
2.81033	193
2.81400	191
2.81767	195
2.82133	204
2.82500	208
2.82867	209
2.83233	206
2.83600	205
2.83967	206
2.84333	208
2.84700	209
2.85067	209
2.85433	213
2.85800	225
2.86167	236
2.86533	238
2.86900	234
2.87267	226
2.87633	216
2.88000	211
2.88367	208
2.88733	206
2.89100	207
2.89467	213
2.89833	222
2.90200	224
2.90567	224
2.90933	219
2.91300	215
2.91667	214
2.92033	214
2.92400	213
2.92767	211
2.93133	209
2.93500	210
2.93867	215
2.94233	220
2.94600	225
2.94967	228
2.95333	221
2.95700	214
2.96067	213
2.96433	223
2.96800	232
2.97167	233
2.97533	229
2.97900	230
2.98267	236
2.98633	237
2.99000	235
2.99367	234
2.99733	232
3.00100	230
3.00467	231
3.00833	230
3.01200	233
3.01567	233
3.01933	234
3.02300	236
3.02667	236
3.03033	237
3.03400	238
3.03767	239
3.04133	240
3.04500	242
3.04867	242
3.05233	242
3.05600	243
3.05967	246
3.06333	244
3.06700	241
3.07067	239
3.07433	236
3.07800	233
3.08167	231
3.08533	235
3.08900	240
3.09267	239
3.09633	237
3.10000	236
3.10367	234
3.10733	231
3.11100	232
3.11467	234
3.11833	239
3.12200	242
3.12567	246
3.12933	250
3.13300	253
3.13667	256
3.14033	260
3.14400	264
3.14767	267
3.15133	260
3.15500	248
3.15867	238
3.16233	232
3.16600	227
3.16967	225
3.17333	226
3.17700	230
3.18067	235
3.18433	236
3.18800	232
3.19167	225
3.19533	220
3.19900	222
3.20267	227
3.20633	231
3.21000	234
3.21367	235
3.21733	240
3.22100	248
3.22467	257
3.22833	259
3.23200	258
3.23567	254
3.23933	248
3.24300	243
3.24667	234
3.25033	225
3.25400	216
3.25767	212
3.26133	210
3.26500	212
3.26867	213
3.27233	210
3.27600	206
3.27967	208
3.28333	212
3.28700	216
3.29067	218
3.29433	222
3.29800	223
3.30167	227
3.30533	237
3.30900	245
3.31267	250
3.31633	257
3.32000	261
3.32367	257
3.32733	249
3.33100	236
3.33467	220
3.33833	207
3.34200	194
3.34567	190
3.34933	197
3.35300	208
3.35667	215
3.36033	217
3.36400	220
3.36767	223
3.37133	224
3.37500	228
3.37867	237
3.38233	246
3.38600	252
3.38967	253
3.39333	249
3.39700	243
3.40067	234
3.40433	225
3.40800	216
3.41167	209
3.41533	201
3.41900	193
3.42267	192
3.42633	193
3.43000	194
3.43367	196
3.43733	192
3.44100	191
3.44467	196
3.44833	204
3.45200	211
3.45567	216
3.45933	221
3.46300	222
3.46667	223
3.47033	221
3.47400	221
3.47767	221
3.48133	217
3.48500	212
3.48867	208
3.49233	206
3.49600	202
3.49967	201
3.50333	206
3.50700	211
3.51067	212
3.51433	212
3.51800	212
3.52167	213
3.52533	217
3.52900	223
3.53267	221
3.53633	214
3.54000	214
3.54367	218
3.54733	220
3.55100	219
3.55467	215
3.55833	211
3.56200	211
3.56567	210
3.56933	209
3.57300	205
3.57667	199
3.58033	196
3.58400	193
3.58767	190
3.59133	188
3.59500	185
3.59867	181
3.60233	183
3.60600	189
3.60967	193
3.61333	198
3.61700	199
3.62067	198
3.62433	200
3.62800	205
3.63167	207
3.63533	209
3.63900	210
3.64267	208
3.64633	206
3.65000	204
3.65367	203
3.65733	202
3.66100	204
3.66467	203
3.66833	199
3.67200	200
3.67567	206
3.67933	211
3.68300	217
3.68667	220
3.69033	214
3.69400	207
3.69767	204
3.70133	203
3.70500	202
3.70867	202
3.71233	203
3.71600	207
3.71967	212
3.72333	215
3.72700	213
3.73067	210
3.73433	207
3.73800	205
3.74167	200
3.74533	196
3.74900	196
3.75267	193
3.75633	190
3.76000	189
3.76367	189
3.76733	194
3.77100	200
3.77467	202
3.77833	205
3.78200	209
3.78567	209
3.78933	199
3.79300	187
3.79667	180
3.80033	179
3.80400	180
3.80767	183
3.81133	185
3.81500	186
3.81867	189
3.82233	192
3.82600	190
3.82967	188
3.83333	183
3.83700	176
3.84067	172
3.84433	176
3.84800	182
3.85167	190
3.85533	194
3.85900	191
3.86267	186
3.86633	186
3.87000	183
3.87367	174
3.87733	169
3.88100	168
3.88467	171
3.88833	178
3.89200	187
3.89567	194
3.89933	201
3.90300	205
3.90667	201
3.91033	193
3.91400	183
3.91767	180
3.92133	178
3.92500	173
3.92867	167
3.93233	165
3.93600	166
3.93967	166
3.94333	169
3.94700	176
3.95067	185
3.95433	191
3.95800	192
3.96167	186
3.96533	174
3.96900	162
3.97267	150
3.97633	141
3.98000	140
3.98367	145
3.98733	149
3.99100	153
3.99467	163
3.99833	177

[Chromatogram (Ch2)]
Interval(msec)	220
# of Points	1091
Start Time(min)	0.002
End Time(min)	3.998
R.Time (min)	Intensity
0.00167	0
0.00533	1
0.00900	1
0.01267	2
0.01633	2
0.02000	2
0.02367	3
0.02733	3
0.03100	4
0.03467	4
0.03833	3
0.04200	3
0.04567	3
0.04933	3
0.05300	2
0.05667	2
0.06033	2
0.06400	2
0.06767	2
0.07133	1
0.07500	1
0.07867	1
0.08233	1
0.08600	1
0.08967	1
0.09333	1
0.09700	1
0.10067	1
0.10433	1
0.10800	2
0.11167	2
0.11533	2
0.11900	2
0.12267	2
0.12633	2
0.13000	2
0.13367	2
0.13733	2
0.14100	1
0.14467	1
0.14833	1
0.15200	2
0.15567	2
0.15933	2
0.16300	2
0.16667	2
0.17033	2
0.17400	2
0.17767	3
0.18133	3
0.18500	3
0.18867	3
0.19233	3
0.19600	3
0.19967	3
0.20333	3
0.20700	3
0.21067	2
0.21433	2
0.21800	2
0.22167	2
0.22533	1
0.22900	2
0.23267	2
0.23633	2
0.24000	1
0.24367	1
0.24733	1
0.25100	1
0.25467	1
0.25833	1
0.26200	1
0.26567	1
0.26933	1
0.27300	1
0.27667	1
0.28033	1
0.28400	2
0.28767	2
0.29133	2
0.29500	2
0.29867	2
0.30233	2
0.30600	2
0.30967	2
0.31333	3
0.31700	3
0.32067	3
0.32433	4
0.32800	4
0.33167	4
0.33533	4
0.33900	4
0.34267	3
0.34633	3
0.35000	3
0.35367	3
0.35733	3
0.36100	3
0.36467	3
0.36833	3
0.37200	3
0.37567	3
0.37933	3
0.38300	3
0.38667	3
0.39033	3
0.39400	3
0.39767	3
0.40133	3
0.40500	3
0.40867	3
0.41233	3
0.41600	3
0.41967	3
0.42333	3
0.42700	3
0.43067	2
0.43433	2
0.43800	2
0.44167	2
0.44533	2
0.44900	1
0.45267	1
0.45633	1
0.46000	1
0.46367	0
0.46733	0
0.47100	0
0.47467	1
0.47833	1
0.48200	1
0.48567	2
0.48933	2
0.49300	2
0.49667	2
0.50033	2
0.50400	2
0.50767	3
0.51133	3
0.51500	3
0.51867	3
0.52233	3
0.52600	2
0.52967	1
0.53333	1
0.53700	1
0.54067	0
0.54433	0
0.54800	0
0.55167	-0
0.55533	-0
0.55900	-1
0.56267	-1
0.56633	-1
0.57000	-1
0.57367	-1
0.57733	-1
0.58100	-1
0.58467	-1
0.58833	-1
0.59200	-1
0.59567	-1
0.59933	-1
0.60300	-1
0.60667	-1
0.61033	-1
0.61400	-1
0.61767	-0
0.62133	-0
0.62500	-0
0.62867	0
0.63233	0
0.63600	0
0.63967	1
0.64333	1
0.64700	1
0.65067	1
0.65433	2
0.65800	2
0.66167	2
0.66533	2
0.66900	2
0.67267	3
0.67633	3
0.68000	3
0.68367	4
0.68733	4
0.69100	4
0.69467	4
0.69833	4
0.70200	4
0.70567	4
0.70933	3
0.71300	3
0.71667	3
0.72033	3
0.72400	3
0.72767	2
0.73133	2
0.73500	2
0.73867	2
0.74233	2
0.74600	2
0.74967	1
0.75333	1
0.75700	0
0.76067	-0
0.76433	-0
0.76800	-1
0.77167	-1
0.77533	-1
0.77900	-1
0.78267	-1
0.78633	-1
0.79000	-0
0.79367	-0
0.79733	-0
0.80100	-0
0.80467	-0
0.80833	-0
0.81200	-0
0.81567	-1
0.81933	-1
0.82300	-1
0.82667	-1
0.83033	-1
0.83400	-0
0.83767	-0
0.84133	-0
0.84500	-0
0.84867	0
0.85233	0
0.85600	0
0.85967	1
0.86333	1
0.86700	1
0.87067	1
0.87433	1
0.87800	1
0.88167	1
0.88533	1
0.88900	1
0.89267	2
0.89633	2
0.90000	2
0.90367	1
0.90733	1
0.91100	1
0.91467	1
0.91833	0
0.92200	-0
0.92567	-1
0.92933	-1
0.93300	-1
0.93667	-1
0.94033	-1
0.94400	-1
0.94767	-2
0.95133	-2
0.95500	-2
0.95867	-2
0.96233	-2
0.96600	-2
0.96967	-1
0.97333	-1
0.97700	-1
0.98067	-1
0.98433	-2
0.98800	-1
0.99167	-1
0.99533	-1
0.99900	-1
1.00267	-1
1.00633	-1
1.01000	-1
1.01367	-0
1.01733	-0
1.02100	0
1.02467	0
1.02833	0
1.03200	-0
1.03567	-0
1.03933	-1
1.04300	-1
1.04667	-1
1.05033	-2
1.05400	-2
1.05767	-2
1.06133	-3
1.06500	-3
1.06867	-3
1.07233	-2
1.07600	-2
1.07967	-2
1.08333	-1
1.08700	-1
1.09067	-1
1.09433	-1
1.09800	-0
1.10167	0
1.10533	1
1.10900	1
1.11267	2
1.11633	2
1.12000	2
1.12367	2
1.12733	2
1.13100	2
1.13467	2
1.13833	2
1.14200	2
1.14567	2
1.14933	2
1.15300	2
1.15667	1
1.16033	1
1.16400	1
1.16767	1
1.17133	1
1.17500	1
1.17867	1
1.18233	1
1.18600	1
1.18967	1
1.19333	1
1.19700	1
1.20067	1
1.20433	1
1.20800	1
1.21167	1
1.21533	1
1.21900	1
1.22267	1
1.22633	1
1.23000	1
1.23367	1
1.23733	0
1.24100	0
1.24467	0
1.24833	-0
1.25200	-0
1.25567	-1
1.25933	-1
1.26300	-1
1.26667	-2
1.27033	-2
1.27400	-2
1.27767	-2
1.28133	-2
1.28500	-2
1.28867	-2
1.29233	-2
1.29600	-2
1.29967	-1
1.30333	-1
1.30700	-1
1.31067	-1
1.31433	-1
1.31800	-0
1.32167	-0
1.32533	-0
1.32900	-0
1.33267	0
1.33633	0
1.34000	0
1.34367	0
1.34733	0
1.35100	0
1.35467	0
1.35833	-0
1.36200	-0
1.36567	-0
1.36933	-1
1.37300	-1
1.37667	-1
1.38033	-1
1.38400	-2
1.38767	-2
1.39133	-2
1.39500	-2
1.39867	-2
1.40233	-2
1.40600	-2
1.40967	-3
1.41333	-3
1.41700	-3
1.42067	-3
1.42433	-3
1.42800	-4
1.43167	-4
1.43533	-4
1.43900	-4
1.44267	-4
1.44633	-4
1.45000	-4
1.45367	-4
1.45733	-4
1.46100	-4
1.46467	-3
1.46833	-3
1.47200	-3
1.47567	-3
1.47933	-2
1.48300	-2
1.48667	-2
1.49033	-2
1.49400	-2
1.49767	-2
1.50133	-2
1.50500	-2
1.50867	-2
1.51233	-2
1.51600	-2
1.51967	-2
1.52333	-2
1.52700	-2
1.53067	-2
1.53433	-2
1.53800	-2
1.54167	-2
1.54533	-2
1.54900	-2
1.55267	-2
1.55633	-2
1.56000	-2
1.56367	-2
1.56733	-2
1.57100	-2
1.57467	-2
1.57833	-2
1.58200	-1
1.58567	-1
1.58933	-1
1.59300	-1
1.59667	-2
1.60033	-3
1.60400	-4
1.60767	-5
1.61133	-7
1.61500	-9
1.61867	-11
1.62233	-14
1.62600	-17
1.62967	-20
1.63333	-23
1.63700	-26
1.64067	-30
1.64433	-34
1.64800	-37
1.65167	-41
1.65533	-44
1.65900	-47
1.66267	-51
1.66633	-54
1.67000	-58
1.67367	-63
1.67733	-67
1.68100	-72
1.68467	-77
1.68833	-81
1.69200	-85
1.69567	-88
1.69933	-91
1.70300	-94
1.70667	-96
1.71033	-97
1.71400	-99
1.71767	-100
1.72133	-101
1.72500	-103
1.72867	-104
1.73233	-106
1.73600	-107
1.73967	-108
1.74333	-108
1.74700	-109
1.75067	-109
1.75433	-109
1.75800	-108
1.76167	-108
1.76533	-108
1.76900	-108
1.77267	-108
1.77633	-108
1.78000	-109
1.78367	-109
1.78733	-110
1.79100	-111
1.79467	-112
1.79833	-112
1.80200	-112
1.80567	-112
1.80933	-112
1.81300	-112
1.81667	-112
1.82033	-113
1.82400	-113
1.82767	-112
1.83133	-112
1.83500	-112
1.83867	-112
1.84233	-111
1.84600	-111
1.84967	-111
1.85333	-111
1.85700	-111
1.86067	-111
1.86433	-112
1.86800	-112
1.87167	-112
1.87533	-112
1.87900	-112
1.88267	-112
1.88633	-112
1.89000	-112
1.89367	-112
1.89733	-112
1.90100	-112
1.90467	-112
1.90833	-111
1.91200	-111
1.91567	-110
1.91933	-110
1.92300	-110
1.92667	-110
1.93033	-109
1.93400	-109
1.93767	-109
1.94133	-109
1.94500	-109
1.94867	-109
1.95233	-109
1.95600	-109
1.95967	-109
1.96333	-109
1.96700	-109
1.97067	-108
1.97433	-108
1.97800	-108
1.98167	-108
1.98533	-107
1.98900	-107
1.99267	-106
1.99633	-105
2.00000	-105
2.00367	-105
2.00733	-104
2.01100	-104
2.01467	-104
2.01833	-104
2.02200	-104
2.02567	-104
2.02933	-104
2.03300	-104
2.03667	-103
2.04033	-103
2.04400	-103
2.04767	-102
2.05133	-102
2.05500	-102
2.05867	-101
2.06233	-101
2.06600	-100
2.06967	-100
2.07333	-100
2.07700	-99
2.08067	-99
2.08433	-99
2.08800	-98
2.09167	-98
2.09533	-98
2.09900	-98
2.10267	-98
2.10633	-98
2.11000	-97
2.11367	-97
2.11733	-96
2.12100	-96
2.12467	-96
2.12833	-95
2.13200	-95
2.13567	-95
2.13933	-95
2.14300	-95
2.14667	-94
2.15033	-94
2.15400	-93
2.15767	-92
2.16133	-92
2.16500	-91
2.16867	-91
2.17233	-91
2.17600	-91
2.17967	-91
2.18333	-92
2.18700	-92
2.19067	-92
2.19433	-91
2.19800	-91
2.20167	-90
2.20533	-90
2.20900	-90
2.21267	-90
2.21633	-89
2.22000	-88
2.22367	-88
2.22733	-87
2.23100	-86
2.23467	-85
2.23833	-85
2.24200	-84
2.24567	-84
2.24933	-83
2.25300	-83
2.25667	-83
2.26033	-83
2.26400	-82
2.26767	-82
2.27133	-81
2.27500	-81
2.27867	-82
2.28233	-82
2.28600	-83
2.28967	-84
2.29333	-84
2.29700	-84
2.30067	-83
2.30433	-83
2.30800	-82
2.31167	-82
2.31533	-82
2.31900	-81
2.32267	-81
2.32633	-80
2.33000	-80
2.33367	-79
2.33733	-78
2.34100	-77
2.34467	-76
2.34833	-76
2.35200	-75
2.35567	-75
2.35933	-74
2.36300	-74
2.36667	-73
2.37033	-72
2.37400	-70
2.37767	-67
2.38133	-64
2.38500	-60
2.38867	-56
2.39233	-52
2.39600	-47
2.39967	-43
2.40333	-38
2.40700	-33
2.41067	-28
2.41433	-24
2.41800	-20
2.42167	-17
2.42533	-14
2.42900	-12
2.43267	-11
2.43633	-9
2.44000	-9
2.44367	-8
2.44733	-7
2.45100	-7
2.45467	-6
2.45833	-6
2.46200	-5
2.46567	-4
2.46933	-3
2.47300	-2
2.47667	-1
2.48033	0
2.48400	1
2.48767	2
2.49133	3
2.49500	4
2.49867	5
2.50233	7
2.50600	8
2.50967	8
2.51333	9
2.51700	10
2.52067	11
2.52433	11
2.52800	11
2.53167	11
2.53533	11
2.53900	11
2.54267	12
2.54633	12
2.55000	13
2.55367	13
2.55733	14
2.56100	14
2.56467	14
2.56833	15
2.57200	14
2.57567	14
2.57933	14
2.58300	14
2.58667	14
2.59033	14
2.59400	15
2.59767	15
2.60133	15
2.60500	16
2.60867	16
2.61233	16
2.61600	16
2.61967	17
2.62333	17
2.62700	17
2.63067	17
2.63433	18
2.63800	18
2.64167	19
2.64533	19
2.64900	19
2.65267	19
2.65633	19
2.66000	19
2.66367	20
2.66733	20
2.67100	20
2.67467	21
2.67833	21
2.68200	21
2.68567	21
2.68933	21
2.69300	21
2.69667	22
2.70033	22
2.70400	23
2.70767	24
2.71133	24
2.71500	25
2.71867	26
2.72233	26
2.72600	27
2.72967	26
2.73333	26
2.73700	26
2.74067	25
2.74433	24
2.74800	24
2.75167	23
2.75533	23
2.75900	23
2.76267	23
2.76633	23
2.77000	23
2.77367	23
2.77733	24
2.78100	24
2.78467	24
2.78833	25
2.79200	25
2.79567	25
2.79933	25
2.80300	26
2.80667	26
2.81033	26
2.81400	26
2.81767	26
2.82133	27
2.82500	27
2.82867	27
2.83233	27
2.83600	27
2.83967	27
2.84333	26
2.84700	23
2.85067	20
2.85433	14
2.85800	5
2.86167	-8
2.86533	-24
2.86900	-45
2.87267	-70
2.87633	-99
2.88000	-133
2.88367	-171
2.88733	-213
2.89100	-258
2.89467	-307
2.89833	-358
2.90200	-410
2.90567	-464
2.90933	-519
2.91300	-575
2.91667	-630
2.92033	-685
2.92400	-739
2.92767	-792
2.93133	-843
2.93500	-896
2.93867	-952
2.94233	-1011
2.94600	-1062
2.94967	-1095
2.95333	-1103
2.95700	-1085
2.96067	-1044
2.96433	-984
2.96800	-913
2.97167	-834
2.97533	-754
2.97900	-673
2.98267	-597
2.98633	-525
2.99000	-459
2.99367	-399
2.99733	-345
3.00100	-297
3.00467	-254
3.00833	-217
3.01200	-185
3.01567	-157
3.01933	-132
3.02300	-111
3.02667	-93
3.03033	-78
3.03400	-64
3.03767	-53
3.04133	-43
3.04500	-34
3.04867	-27
3.05233	-21
3.05600	-16
3.05967	-12
3.06333	-8
3.06700	-5
3.07067	-2
3.07433	0
3.07800	2
3.08167	4
3.08533	5
3.08900	6
3.09267	7
3.09633	8
3.10000	9
3.10367	10
3.10733	11
3.11100	12
3.11467	13
3.11833	13
3.12200	14
3.12567	14
3.12933	15
3.13300	15
3.13667	15
3.14033	15
3.14400	15
3.14767	16
3.15133	16
3.15500	16
3.15867	16
3.16233	17
3.16600	17
3.16967	18
3.17333	18
3.17700	18
3.18067	19
3.18433	19
3.18800	19
3.19167	20
3.19533	20
3.19900	21
3.20267	21
3.20633	21
3.21000	22
3.21367	22
3.21733	22
3.22100	22
3.22467	22
3.22833	22
3.23200	22
3.23567	22
3.23933	22
3.24300	22
3.24667	22
3.25033	22
3.25400	22
3.25767	22
3.26133	22
3.26500	22
3.26867	22
3.27233	21
3.27600	21
3.27967	22
3.28333	22
3.28700	22
3.29067	23
3.29433	24
3.29800	24
3.30167	24
3.30533	25
3.30900	25
3.31267	25
3.31633	26
3.32000	26
3.32367	27
3.32733	27
3.33100	27
3.33467	28
3.33833	28
3.34200	28
3.34567	28
3.34933	28
3.35300	28
3.35667	28
3.36033	28
3.36400	28
3.36767	28
3.37133	28
3.37500	28
3.37867	28
3.38233	28
3.38600	28
3.38967	28
3.39333	28
3.39700	28
3.40067	28
3.40433	28
3.40800	28
3.41167	28
3.41533	28
3.41900	28
3.42267	28
3.42633	28
3.43000	28
3.43367	28
3.43733	28
3.44100	27
3.44467	27
3.44833	27
3.45200	27
3.45567	26
3.45933	26
3.46300	26
3.46667	26
3.47033	26
3.47400	26
3.47767	26
3.48133	26
3.48500	26
3.48867	26
3.49233	26
3.49600	26
3.49967	26
3.50333	26
3.50700	26
3.51067	26
3.51433	26
3.51800	26
3.52167	25
3.52533	25
3.52900	25
3.53267	25
3.53633	25
3.54000	25
3.54367	25
3.54733	25
3.55100	25
3.55467	25
3.55833	25
3.56200	26
3.56567	26
3.56933	26
3.57300	26
3.57667	26
3.58033	26
3.58400	25
3.58767	25
3.59133	25
3.59500	25
3.59867	25
3.60233	25
3.60600	25
3.60967	25
3.61333	25
3.61700	25
3.62067	25
3.62433	25
3.62800	25
3.63167	26
3.63533	26
3.63900	27
3.64267	27
3.64633	27
3.65000	27
3.65367	27
3.65733	27
3.66100	27
3.66467	27
3.66833	27
3.67200	27
3.67567	27
3.67933	27
3.68300	27
3.68667	27
3.69033	27
3.69400	26
3.69767	26
3.70133	26
3.70500	26
3.70867	25
3.71233	25
3.71600	25
3.71967	25
3.72333	25
3.72700	26
3.73067	26
3.73433	26
3.73800	26
3.74167	26
3.74533	26
3.74900	26
3.75267	26
3.75633	26
3.76000	26
3.76367	26
3.76733	26
3.77100	26
3.77467	26
3.77833	26
3.78200	26
3.78567	26
3.78933	27
3.79300	27
3.79667	27
3.80033	27
3.80400	27
3.80767	27
3.81133	27
3.81500	26
3.81867	26
3.82233	26
3.82600	25
3.82967	25
3.83333	25
3.83700	25
3.84067	25
3.84433	25
3.84800	25
3.85167	25
3.85533	25
3.85900	25
3.86267	25
3.86633	25
3.87000	25
3.87367	25
3.87733	25
3.88100	25
3.88467	25
3.88833	25
3.89200	25
3.89567	25
3.89933	25
3.90300	24
3.90667	24
3.91033	24
3.91400	25
3.91767	25
3.92133	25
3.92500	26
3.92867	26
3.93233	26
3.93600	27
3.93967	27
3.94333	27
3.94700	28
3.95067	28
3.95433	28
3.95800	28
3.96167	28
3.96533	28
3.96900	28
3.97267	28
3.97633	28
3.98000	28
3.98367	28
3.98733	28
3.99100	28
3.99467	28
3.99833	28

[Chromatogram (Ch3)]
Interval(msec)	220
# of Points	1091
Start Time(min)	0.002
End Time(min)	3.998
R.Time (min)	Intensity
0.00167	1
0.00533	1
0.00900	1
0.01267	0
0.01633	-0
0.02000	0
0.02367	2
0.02733	2
0.03100	1
0.03467	0
0.03833	0
0.04200	1
0.04567	2
0.04933	2
0.05300	3
0.05667	3
0.06033	2
0.06400	-0
0.06767	0
0.07133	2
0.07500	2
0.07867	1
0.08233	1
0.08600	1
0.08967	1
0.09333	1
0.09700	2
0.10067	-0
0.10433	-2
0.10800	-2
0.11167	-0
0.11533	2
0.11900	4
0.12267	4
0.12633	2
0.13000	2
0.13367	3
0.13733	2
0.14100	2
0.14467	1
0.14833	1
0.15200	2
0.15567	2
0.15933	1
0.16300	1
0.16667	1
0.17033	-0
0.17400	1
0.17767	2
0.18133	3
0.18500	3
0.18867	-0
0.19233	-2
0.19600	-2
0.19967	1
0.20333	3
0.20700	3
0.21067	2
0.21433	1
0.21800	0
0.22167	-1
0.22533	-0
0.22900	1
0.23267	1
0.23633	1
0.24000	2
0.24367	1
0.24733	0
0.25100	-1
0.25467	0
0.25833	-0
0.26200	0
0.26567	0
0.26933	-1
0.27300	-1
0.27667	-1
0.28033	-1
0.28400	0
0.28767	2
0.29133	3
0.29500	4
0.29867	5
0.30233	5
0.30600	7
0.30967	9
0.31333	8
0.31700	6
0.32067	4
0.32433	2
0.32800	1
0.33167	0
0.33533	-0
0.33900	-0
0.34267	0
0.34633	-2
0.35000	-3
0.35367	-1
0.35733	-1
0.36100	-2
0.36467	0
0.36833	3
0.37200	4
0.37567	5
0.37933	5
0.38300	6
0.38667	5
0.39033	5
0.39400	3
0.39767	2
0.40133	1
0.40500	1
0.40867	2
0.41233	3
0.41600	4
0.41967	3
0.42333	5
0.42700	6
0.43067	7
0.43433	6
0.43800	5
0.44167	4
0.44533	5
0.44900	5
0.45267	5
0.45633	3
0.46000	2
0.46367	2
0.46733	2
0.47100	1
0.47467	1
0.47833	3
0.48200	4
0.48567	3
0.48933	2
0.49300	0
0.49667	-1
0.50033	-1
0.50400	-0
0.50767	2
0.51133	3
0.51500	4
0.51867	7
0.52233	8
0.52600	9
0.52967	7
0.53333	6
0.53700	7
0.54067	8
0.54433	7
0.54800	7
0.55167	7
0.55533	7
0.55900	6
0.56267	5
0.56633	3
0.57000	1
0.57367	-1
0.57733	-2
0.58100	-1
0.58467	1
0.58833	3
0.59200	4
0.59567	5
0.59933	6
0.60300	4
0.60667	5
0.61033	7
0.61400	7
0.61767	8
0.62133	7
0.62500	8
0.62867	8
0.63233	7
0.63600	6
0.63967	6
0.64333	9
0.64700	11
0.65067	10
0.65433	9
0.65800	10
0.66167	12
0.66533	13
0.66900	14
0.67267	14
0.67633	12
0.68000	10
0.68367	9
0.68733	9
0.69100	7
0.69467	5
0.69833	3
0.70200	4
0.70567	6
0.70933	9
0.71300	11
0.71667	11
0.72033	9
0.72400	10
0.72767	11
0.73133	12
0.73500	12
0.73867	12
0.74233	12
0.74600	13
0.74967	13
0.75333	13
0.75700	13
0.76067	12
0.76433	12
0.76800	14
0.77167	15
0.77533	16
0.77900	16
0.78267	15
0.78633	14
0.79000	13
0.79367	11
0.79733	12
0.80100	14
0.80467	15
0.80833	16
0.81200	17
0.81567	17
0.81933	17
0.82300	17
0.82667	18
0.83033	18
0.83400	16
0.83767	15
0.84133	14
0.84500	15
0.84867	17
0.85233	17
0.85600	18
0.85967	20
0.86333	21
0.86700	20
0.87067	19
0.87433	20
0.87800	19
0.88167	16
0.88533	15
0.88900	15
0.89267	16
0.89633	16
0.90000	16
0.90367	15
0.90733	13
0.91100	14
0.91467	15
0.91833	16
0.92200	16
0.92567	17
0.92933	17
0.93300	18
0.93667	20
0.94033	22
0.94400	22
0.94767	22
0.95133	21
0.95500	20
0.95867	20
0.96233	22
0.96600	20
0.96967	19
0.97333	19
0.97700	18
0.98067	18
0.98433	19
0.98800	19
0.99167	17
0.99533	16
0.99900	18
1.00267	19
1.00633	18
1.01000	17
1.01367	18
1.01733	18
1.02100	19
1.02467	17
1.02833	15
1.03200	17
1.03567	18
1.03933	21
1.04300	22
1.04667	21
1.05033	19
1.05400	19
1.05767	20
1.06133	19
1.06500	18
1.06867	17
1.07233	17
1.07600	15
1.07967	15
1.08333	14
1.08700	14
1.09067	14
1.09433	16
1.09800	17
1.10167	18
1.10533	19
1.10900	20
1.11267	20
1.11633	21
1.12000	22
1.12367	22
1.12733	22
1.13100	22
1.13467	22
1.13833	23
1.14200	21
1.14567	21
1.14933	21
1.15300	21
1.15667	24
1.16033	25
1.16400	25
1.16767	24
1.17133	24
1.17500	25
1.17867	25
1.18233	27
1.18600	29
1.18967	27
1.19333	26
1.19700	26
1.20067	26
1.20433	25
1.20800	27
1.21167	28
1.21533	27
1.21900	28
1.22267	28
1.22633	30
1.23000	32
1.23367	33
1.23733	34
1.24100	36
1.24467	38
1.24833	38
1.25200	38
1.25567	39
1.25933	40
1.26300	41
1.26667	40
1.27033	42
1.27400	44
1.27767	43
1.28133	41
1.28500	39
1.28867	37
1.29233	39
1.29600	40
1.29967	41
1.30333	42
1.30700	43
1.31067	44
1.31433	44
1.31800	45
1.32167	45
1.32533	44
1.32900	43
1.33267	43
1.33633	44
1.34000	45
1.34367	45
1.34733	46
1.35100	46
1.35467	44
1.35833	42
1.36200	39
1.36567	37
1.36933	35
1.37300	33
1.37667	32
1.38033	32
1.38400	33
1.38767	33
1.39133	35
1.39500	37
1.39867	38
1.40233	38
1.40600	39
1.40967	41
1.41333	44
1.41700	45
1.42067	46
1.42433	47
1.42800	48
1.43167	48
1.43533	49
1.43900	49
1.44267	47
1.44633	46
1.45000	43
1.45367	42
1.45733	43
1.46100	43
1.46467	43
1.46833	44
1.47200	46
1.47567	49
1.47933	49
1.48300	49
1.48667	50
1.49033	53
1.49400	53
1.49767	50
1.50133	47
1.50500	47
1.50867	48
1.51233	48
1.51600	48
1.51967	46
1.52333	46
1.52700	48
1.53067	49
1.53433	50
1.53800	50
1.54167	50
1.54533	50
1.54900	51
1.55267	51
1.55633	51
1.56000	51
1.56367	51
1.56733	49
1.57100	48
1.57467	48
1.57833	49
1.58200	50
1.58567	50
1.58933	52
1.59300	53
1.59667	50
1.60033	48
1.60400	48
1.60767	49
1.61133	50
1.61500	54
1.61867	56
1.62233	56
1.62600	54
1.62967	55
1.63333	55
1.63700	55
1.64067	57
1.64433	60
1.64800	60
1.65167	58
1.65533	56
1.65900	55
1.66267	55
1.66633	55
1.67000	55
1.67367	56
1.67733	58
1.68100	61
1.68467	64
1.68833	63
1.69200	63
1.69567	63
1.69933	62
1.70300	63
1.70667	66
1.71033	69
1.71400	72
1.71767	70
1.72133	68
1.72500	66
1.72867	69
1.73233	70
1.73600	71
1.73967	72
1.74333	72
1.74700	73
1.75067	72
1.75433	71
1.75800	71
1.76167	73
1.76533	72
1.76900	72
1.77267	71
1.77633	69
1.78000	69
1.78367	71
1.78733	72
1.79100	74
1.79467	77
1.79833	79
1.80200	80
1.80567	79
1.80933	75
1.81300	73
1.81667	72
1.82033	74
1.82400	76
1.82767	77
1.83133	77
1.83500	79
1.83867	80
1.84233	80
1.84600	80
1.84967	81
1.85333	83
1.85700	83
1.86067	82
1.86433	83
1.86800	84
1.87167	85
1.87533	86
1.87900	87
1.88267	87
1.88633	86
1.89000	86
1.89367	83
1.89733	85
1.90100	87
1.90467	88
1.90833	88
1.91200	88
1.91567	88
1.91933	88
1.92300	89
1.92667	89
1.93033	90
1.93400	91
1.93767	93
1.94133	94
1.94500	94
1.94867	93
1.95233	92
1.95600	92
1.95967	94
1.96333	95
1.96700	96
1.97067	97
1.97433	97
1.97800	99
1.98167	104
1.98533	108
1.98900	111
1.99267	113
1.99633	114
2.00000	113
2.00367	112
2.00733	113
2.01100	113
2.01467	115
2.01833	115
2.02200	115
2.02567	114
2.02933	116
2.03300	119
2.03667	124
2.04033	127
2.04400	130
2.04767	131
2.05133	131
2.05500	131
2.05867	131
2.06233	132
2.06600	133
2.06967	135
2.07333	137
2.07700	138
2.08067	139
2.08433	140
2.08800	143
2.09167	146
2.09533	149
2.09900	151
2.10267	152
2.10633	152
2.11000	151
2.11367	148
2.11733	149
2.12100	151
2.12467	154
2.12833	157
2.13200	159
2.13567	161
2.13933	162
2.14300	162
2.14667	163
2.15033	164
2.15400	164
2.15767	166
2.16133	170
2.16500	171
2.16867	171
2.17233	173
2.17600	177
2.17967	180
2.18333	179
2.18700	177
2.19067	175
2.19433	175
2.19800	177
2.20167	178
2.20533	180
2.20900	182
2.21267	185
2.21633	186
2.22000	189
2.22367	190
2.22733	189
2.23100	188
2.23467	189
2.23833	189
2.24200	186
2.24567	187
2.24933	188
2.25300	187
2.25667	188
2.26033	188
2.26400	190
2.26767	192
2.27133	194
2.27500	196
2.27867	196
2.28233	196
2.28600	197
2.28967	198
2.29333	200
2.29700	200
2.30067	201
2.30433	201
2.30800	203
2.31167	205
2.31533	207
2.31900	207
2.32267	206
2.32633	207
2.33000	208
2.33367	209
2.33733	209
2.34100	211
2.34467	215
2.34833	218
2.35200	218
2.35567	216
2.35933	215
2.36300	215
2.36667	216
2.37033	218
2.37400	220
2.37767	221
2.38133	222
2.38500	222
2.38867	221
2.39233	222
2.39600	226
2.39967	228
2.40333	228
2.40700	227
2.41067	227
2.41433	228
2.41800	229
2.42167	231
2.42533	234
2.42900	234
2.43267	233
2.43633	232
2.44000	233
2.44367	288
2.44733	428
2.45100	578
2.45467	699
2.45833	766
2.46200	770
2.46567	743
2.46933	711
2.47300	686
2.47667	673
2.48033	654
2.48400	624
2.48767	584
2.49133	539
2.49500	499
2.49867	467
2.50233	444
2.50600	431
2.50967	427
2.51333	434
2.51700	450
2.52067	470
2.52433	487
2.52800	495
2.53167	489
2.53533	474
2.53900	448
2.54267	419
2.54633	390
2.55000	363
2.55367	341
2.55733	322
2.56100	310
2.56467	301
2.56833	293
2.57200	288
2.57567	285
2.57933	284
2.58300	285
2.58667	284
2.59033	282
2.59400	283
2.59767	285
2.60133	287
2.60500	287
2.60867	284
2.61233	279
2.61600	274
2.61967	269
2.62333	262
2.62700	255
2.63067	250
2.63433	246
2.63800	242
2.64167	239
2.64533	234
2.64900	224
2.65267	212
2.65633	199
2.66000	189
2.66367	180
2.66733	171
2.67100	162
2.67467	153
2.67833	146
2.68200	143
2.68567	141
2.68933	139
2.69300	135
2.69667	133
2.70033	134
2.70400	137
2.70767	140
2.71133	143
2.71500	146
2.71867	149
2.72233	150
2.72600	152
2.72967	155
2.73333	157
2.73700	158
2.74067	159
2.74433	161
2.74800	163
2.75167	166
2.75533	169
2.75900	174
2.76267	176
2.76633	180
2.77000	183
2.77367	185
2.77733	186
2.78100	186
2.78467	187
2.78833	189
2.79200	193
2.79567	198
2.79933	203
2.80300	208
2.80667	212
2.81033	216
2.81400	218
2.81767	223
2.82133	233
2.82500	253
2.82867	289
2.83233	355
2.83600	471
2.83967	664
2.84333	951
2.84700	1339
2.85067	1823
2.85433	2378
2.85800	2970
2.86167	3550
2.86533	4073
2.86900	4496
2.87267	4788
2.87633	4937
2.88000	4946
2.88367	4831
2.88733	4621
2.89100	4343
2.89467	4022
2.89833	3678
2.90200	3332
2.90567	2996
2.90933	2679
2.91300	2388
2.91667	2124
2.92033	1887
2.92400	1675
2.92767	1487
2.93133	1321
2.93500	1172
2.93867	1043
2.94233	932
2.94600	833
2.94967	747
2.95333	673
2.95700	610
2.96067	556
2.96433	508
2.96800	466
2.97167	432
2.97533	402
2.97900	376
2.98267	352
2.98633	331
2.99000	313
2.99367	297
2.99733	284
3.00100	272
3.00467	261
3.00833	254
3.01200	249
3.01567	244
3.01933	237
3.02300	231
3.02667	225
3.03033	220
3.03400	216
3.03767	214
3.04133	212
3.04500	211
3.04867	211
3.05233	211
3.05600	211
3.05967	210
3.06333	208
3.06700	207
3.07067	206
3.07433	206
3.07800	206
3.08167	207
3.08533	208
3.08900	208
3.09267	208
3.09633	208
3.10000	207
3.10367	199
3.10733	177
3.11100	152
3.11467	144
3.11833	154
3.12200	178
3.12567	214
3.12933	252
3.13300	292
3.13667	336
3.14033	381
3.14400	424
3.14767	465
3.15133	505
3.15500	543
3.15867	576
3.16233	605
3.16600	627
3.16967	647
3.17333	664
3.17700	679
3.18067	694
3.18433	707
3.18800	719
3.19167	730
3.19533	738
3.19900	747
3.20267	756
3.20633	764
3.21000	772
3.21367	781
3.21733	789
3.22100	795
3.22467	800
3.22833	806
3.23200	813
3.23567	819
3.23933	823
3.24300	828
3.24667	833
3.25033	839
3.25400	843
3.25767	848
3.26133	853
3.26500	859
3.26867	867
3.27233	872
3.27600	876
3.27967	879
3.28333	882
3.28700	886
3.29067	891
3.29433	893
3.29800	893
3.30167	893
3.30533	895
3.30900	898
3.31267	901
3.31633	903
3.32000	905
3.32367	906
3.32733	907
3.33100	907
3.33467	907
3.33833	905
3.34200	906
3.34567	905
3.34933	905
3.35300	901
3.35667	897
3.36033	893
3.36400	890
3.36767	887
3.37133	884
3.37500	882
3.37867	880
3.38233	878
3.38600	878
3.38967	877
3.39333	875
3.39700	872
3.40067	869
3.40433	866
3.40800	864
3.41167	863
3.41533	861
3.41900	858
3.42267	856
3.42633	853
3.43000	850
3.43367	850
3.43733	848
3.44100	845
3.44467	843
3.44833	843
3.45200	844
3.45567	843
3.45933	841
3.46300	840
3.46667	840
3.47033	840
3.47400	838
3.47767	835
3.48133	833
3.48500	833
3.48867	832
3.49233	831
3.49600	829
3.49967	825
3.50333	825
3.50700	824
3.51067	823
3.51433	821
3.51800	820
3.52167	817
3.52533	817
3.52900	817
3.53267	817
3.53633	816
3.54000	815
3.54367	814
3.54733	812
3.55100	809
3.55467	806
3.55833	806
3.56200	803
3.56567	800
3.56933	799
3.57300	796
3.57667	796
3.58033	796
3.58400	797
3.58767	799
3.59133	799
3.59500	796
3.59867	795
3.60233	795
3.60600	794
3.60967	791
3.61333	790
3.61700	787
3.62067	785
3.62433	784
3.62800	784
3.63167	781
3.63533	780
3.63900	777
3.64267	774
3.64633	773
3.65000	772
3.65367	770
3.65733	768
3.66100	766
3.66467	764
3.66833	762
3.67200	759
3.67567	755
3.67933	753
3.68300	753
3.68667	753
3.69033	751
3.69400	747
3.69767	743
3.70133	742
3.70500	741
3.70867	741
3.71233	739
3.71600	735
3.71967	730
3.72333	725
3.72700	722
3.73067	721
3.73433	720
3.73800	717
3.74167	713
3.74533	711
3.74900	709
3.75267	706
3.75633	703
3.76000	703
3.76367	701
3.76733	697
3.77100	693
3.77467	693
3.77833	693
3.78200	691
3.78567	686
3.78933	682
3.79300	681
3.79667	678
3.80033	677
3.80400	677
3.80767	679
3.81133	678
3.81500	675
3.81867	673
3.82233	672
3.82600	669
3.82967	667
3.83333	666
3.83700	662
3.84067	661
3.84433	658
3.84800	653
3.85167	649
3.85533	645
3.85900	643
3.86267	642
3.86633	640
3.87000	639
3.87367	637
3.87733	634
3.88100	633
3.88467	634
3.88833	634
3.89200	632
3.89567	631
3.89933	630
3.90300	629
3.90667	627
3.91033	626
3.91400	623
3.91767	620
3.92133	616
3.92500	613
3.92867	611
3.93233	608
3.93600	605
3.93967	603
3.94333	601
3.94700	599
3.95067	598
3.95433	597
3.95800	596
3.96167	596
3.96533	595
3.96900	595
3.97267	595
3.97633	595
3.98000	592
3.98367	590
3.98733	588
3.99100	585
3.99467	584
3.99833	580

[Status Trace (Column Oven Temperature)]
Interval(msec)	1000
# of Points	240
Start Time(min)	0.011
End Time(min)	3.994
Intensity Units	
Intensity Multiplier	1
R.Time (min)	Intensity
0.01113	35.08
0.02780	35.07
0.04447	35.07
0.06113	35.08
0.07780	35.06
0.09447	35.07
0.11113	35.07
0.12780	35.07
0.14447	35.07
0.16113	35.06
0.17780	35.05
0.19447	35.05
0.21113	35.05
0.22780	35.06
0.24447	35.06
0.26113	35.06
0.27780	35.06
0.29447	35.05
0.31113	35.04
0.32780	35.03
0.34447	35.03
0.36113	35.02
0.37780	35.01
0.39447	35.01
0.41113	35.00
0.42780	35.01
0.44447	35.01
0.46113	35.01
0.47780	35.02
0.49447	35.01
0.51113	35.01
0.52780	35.02
0.54447	35.02
0.56113	35.03
0.57780	35.03
0.59447	35.04
0.61113	35.04
0.62780	35.04
0.64447	35.03
0.66113	35.02
0.67780	35.00
0.69447	34.99
0.71113	34.98
0.72780	34.98
0.74447	34.99
0.76113	35.00
0.77780	35.01
0.79447	35.01
0.81113	35.01
0.82780	35.02
0.84447	35.00
0.86113	35.00
0.87780	34.99
0.89447	34.98
0.91113	34.98
0.92780	35.00
0.94447	35.01
0.96113	35.00
0.97780	35.00
0.99447	35.01
1.01113	35.01
1.02780	35.00
1.04447	35.01
1.06113	35.01
1.07780	35.02
1.09447	35.01
1.11113	35.00
1.12780	34.98
1.14447	34.98
1.16113	34.98
1.17780	34.98
1.19447	34.98
1.21113	34.99
1.22780	34.98
1.24447	34.98
1.26113	34.99
1.27780	34.98
1.29447	34.98
1.31113	34.98
1.32780	34.97
1.34447	34.97
1.36113	34.96
1.37780	34.97
1.39447	34.98
1.41113	34.99
1.42780	35.00
1.44447	35.01
1.46113	35.02
1.47780	35.02
1.49447	35.01
1.51113	35.02
1.52780	35.02
1.54447	35.02
1.56113	35.02
1.57780	35.03
1.59447	35.05
1.61113	35.10
1.62780	35.23
1.64447	35.43
1.66113	35.68
1.67780	36.02
1.69447	36.38
1.71113	36.71
1.72780	37.07
1.74447	37.41
1.76113	37.72
1.77780	38.06
1.79447	38.40
1.81113	38.74
1.82780	39.07
1.84447	39.40
1.86113	39.73
1.87780	40.05
1.89447	40.39
1.91113	40.71
1.92780	41.03
1.94447	41.36
1.96113	41.69
1.97780	42.01
1.99447	42.34
2.01113	42.66
2.02780	43.00
2.04447	43.32
2.06113	43.65
2.07780	43.97
2.09447	44.30
2.11113	44.61
2.12780	44.94
2.14447	45.28
2.16113	45.59
2.17780	45.94
2.19447	46.25
2.21113	46.59
2.22780	46.89
2.24447	47.22
2.26113	47.54
2.27780	47.90
2.29447	48.24
2.31113	48.57
2.32780	48.89
2.34447	49.20
2.36113	49.50
2.37780	49.70
2.39447	49.76
2.41113	49.74
2.42780	49.74
2.44447	49.74
2.46113	49.75
2.47780	49.75
2.49447	49.75
2.51113	49.76
2.52780	49.78
2.54447	49.79
2.56113	49.80
2.57780	49.82
2.59447	49.83
2.61113	49.83
2.62780	49.83
2.64447	49.83
2.66113	49.85
2.67780	49.85
2.69447	49.85
2.71113	49.84
2.72780	49.84
2.74447	49.87
2.76113	49.89
2.77780	49.90
2.79447	49.90
2.81113	49.89
2.82780	49.89
2.84447	49.89
2.86113	49.90
2.87780	49.92
2.89447	49.92
2.91113	49.92
2.92780	49.94
2.94447	49.96
2.96113	49.97
2.97780	49.98
2.99447	49.99
3.01113	49.99
3.02780	50.00
3.04447	50.01
3.06113	50.01
3.07780	50.02
3.09447	50.03
3.11113	50.04
3.12780	50.05
3.14447	50.07
3.16113	50.08
3.17780	50.08
3.19447	50.07
3.21113	50.08
3.22780	50.08
3.24447	50.09
3.26113	50.10
3.27780	50.11
3.29447	50.10
3.31113	50.09
3.32780	50.07
3.34447	50.06
3.36113	50.05
3.37780	50.04
3.39447	50.03
3.41113	50.02
3.42780	50.02
3.44447	50.02
3.46113	50.03
3.47780	50.03
3.49447	50.03
3.51113	50.04
3.52780	50.04
3.54447	50.05
3.56113	50.05
3.57780	50.05
3.59447	50.06
3.61113	50.07
3.62780	50.06
3.64447	50.05
3.66113	50.05
3.67780	50.06
3.69447	50.06
3.71113	50.07
3.72780	50.07
3.74447	50.07
3.76113	50.07
3.77780	50.07
3.79447	50.06
3.81113	50.07
3.82780	50.08
3.84447	50.08
3.86113	50.08
3.87780	50.08
3.89447	50.10
3.91113	50.10
3.92780	50.09
3.94447	50.08
3.96113	50.08
3.97780	50.07
3.99447	50.06

[Status Trace (Injection Unit Temperature)]
Interval(msec)	1000
# of Points	240
Start Time(min)	0.011
End Time(min)	3.994
Intensity Units	
Intensity Multiplier	1
R.Time (min)	Intensity
0.01113	99.98
0.02780	99.99
0.04447	99.99
0.06113	99.98
0.07780	99.98
0.09447	99.98
0.11113	99.98
0.12780	99.98
0.14447	99.98
0.16113	99.98
0.17780	99.99
0.19447	99.98
0.21113	99.98
0.22780	99.98
0.24447	99.98
0.26113	99.98
0.27780	99.98
0.29447	99.98
0.31113	99.98
0.32780	99.99
0.34447	99.98
0.36113	99.99
0.37780	99.98
0.39447	99.98
0.41113	99.98
0.42780	99.99
0.44447	99.98
0.46113	99.98
0.47780	99.99
0.49447	99.98
0.51113	99.98
0.52780	99.98
0.54447	99.98
0.56113	99.99
0.57780	99.99
0.59447	99.98
0.61113	99.98
0.62780	99.98
0.64447	99.99
0.66113	99.98
0.67780	99.98
0.69447	99.99
0.71113	99.99
0.72780	99.99
0.74447	99.99
0.76113	99.98
0.77780	99.99
0.79447	99.99
0.81113	99.98
0.82780	99.98
0.84447	99.99
0.86113	99.99
0.87780	99.98
0.89447	99.98
0.91113	99.98
0.92780	99.99
0.94447	99.98
0.96113	99.99
0.97780	99.98
0.99447	99.98
1.01113	99.98
1.02780	99.99
1.04447	99.99
1.06113	99.98
1.07780	99.98
1.09447	99.99
1.11113	99.99
1.12780	99.99
1.14447	99.99
1.16113	99.99
1.17780	99.99
1.19447	99.99
1.21113	99.99
1.22780	99.99
1.24447	99.99
1.26113	99.99
1.27780	99.99
1.29447	99.99
1.31113	99.98
1.32780	99.99
1.34447	99.99
1.36113	99.98
1.37780	99.99
1.39447	99.99
1.41113	99.99
1.42780	99.99
1.44447	99.98
1.46113	99.99
1.47780	99.98
1.49447	99.98
1.51113	99.99
1.52780	99.98
1.54447	99.99
1.56113	99.98
1.57780	99.98
1.59447	99.99
1.61113	99.99
1.62780	99.99
1.64447	99.99
1.66113	99.99
1.67780	99.98
1.69447	99.98
1.71113	99.99
1.72780	99.99
1.74447	99.98
1.76113	99.99
1.77780	99.98
1.79447	99.98
1.81113	99.99
1.82780	99.98
1.84447	99.98
1.86113	99.98
1.87780	99.98
1.89447	99.98
1.91113	99.98
1.92780	99.98
1.94447	99.98
1.96113	99.98
1.97780	99.98
1.99447	99.98
2.01113	99.98
2.02780	99.98
2.04447	99.98
2.06113	99.98
2.07780	99.98
2.09447	99.98
2.11113	99.98
2.12780	99.98
2.14447	99.97
2.16113	99.98
2.17780	99.98
2.19447	99.98
2.21113	99.98
2.22780	99.97
2.24447	99.97
2.26113	99.97
2.27780	99.97
2.29447	99.97
2.31113	99.97
2.32780	99.97
2.34447	99.97
2.36113	99.97
2.37780	99.97
2.39447	99.97
2.41113	99.97
2.42780	99.97
2.44447	99.97
2.46113	99.97
2.47780	99.97
2.49447	99.97
2.51113	99.97
2.52780	99.97
2.54447	99.97
2.56113	99.97
2.57780	99.97
2.59447	99.97
2.61113	99.98
2.62780	99.98
2.64447	99.98
2.66113	99.98
2.67780	99.98
2.69447	99.98
2.71113	99.98
2.72780	99.99
2.74447	99.98
2.76113	99.98
2.77780	99.99
2.79447	99.99
2.81113	99.99
2.82780	99.99
2.84447	99.99
2.86113	99.99
2.87780	99.99
2.89447	100.00
2.91113	100.00
2.92780	100.00
2.94447	100.00
2.96113	100.00
2.97780	100.00
2.99447	100.00
3.01113	100.01
3.02780	100.01
3.04447	100.01
3.06113	100.01
3.07780	100.01
3.09447	100.01
3.11113	100.01
3.12780	100.01
3.14447	100.01
3.16113	100.01
3.17780	100.01
3.19447	100.02
3.21113	100.02
3.22780	100.01
3.24447	100.02
3.26113	100.02
3.27780	100.02
3.29447	100.02
3.31113	100.02
3.32780	100.02
3.34447	100.02
3.36113	100.02
3.37780	100.02
3.39447	100.02
3.41113	100.03
3.42780	100.03
3.44447	100.03
3.46113	100.03
3.47780	100.03
3.49447	100.02
3.51113	100.03
3.52780	100.03
3.54447	100.03
3.56113	100.03
3.57780	100.03
3.59447	100.03
3.61113	100.03
3.62780	100.03
3.64447	100.03
3.66113	100.03
3.67780	100.03
3.69447	100.04
3.71113	100.03
3.72780	100.03
3.74447	100.04
3.76113	100.03
3.77780	100.03
3.79447	100.04
3.81113	100.04
3.82780	100.04
3.84447	100.04
3.86113	100.03
3.87780	100.04
3.89447	100.04
3.91113	100.04
3.92780	100.04
3.94447	100.05
3.96113	100.04
3.97780	100.04
3.99447	100.04

[Status Trace (Carrier Gas Pressure)]
Interval(msec)	1000
# of Points	240
Start Time(min)	0.011
End Time(min)	3.994
Intensity Units	
Intensity Multiplier	1
R.Time (min)	Intensity
0.01113	58.00
0.02780	55.02
0.04447	57.62
0.06113	59.60
0.07780	59.00
0.09447	58.00
0.11113	57.98
0.12780	58.01
0.14447	58.01
0.16113	58.00
0.17780	58.00
0.19447	58.00
0.21113	58.00
0.22780	58.00
0.24447	58.00
0.26113	58.00
0.27780	58.00
0.29447	58.00
0.31113	58.00
0.32780	58.00
0.34447	58.00
0.36113	58.00
0.37780	58.00
0.39447	58.00
0.41113	58.00
0.42780	58.00
0.44447	58.00
0.46113	58.00
0.47780	58.00
0.49447	58.00
0.51113	58.00
0.52780	58.00
0.54447	58.00
0.56113	58.00
0.57780	58.00
0.59447	58.00
0.61113	58.00
0.62780	58.00
0.64447	58.00
0.66113	58.00
0.67780	58.00
0.69447	58.00
0.71113	58.00
0.72780	58.00
0.74447	58.00
0.76113	58.00
0.77780	58.00
0.79447	58.00
0.81113	58.00
0.82780	58.00
0.84447	58.00
0.86113	58.00
0.87780	58.00
0.89447	58.00
0.91113	58.00
0.92780	58.00
0.94447	58.00
0.96113	58.00
0.97780	58.00
0.99447	58.00
1.01113	58.00
1.02780	58.00
1.04447	58.00
1.06113	58.00
1.07780	58.00
1.09447	58.00
1.11113	58.00
1.12780	58.00
1.14447	58.00
1.16113	58.00
1.17780	58.00
1.19447	58.00
1.21113	58.00
1.22780	58.00
1.24447	58.00
1.26113	58.00
1.27780	58.00
1.29447	58.00
1.31113	58.00
1.32780	58.00
1.34447	58.00
1.36113	58.00
1.37780	58.00
1.39447	58.00
1.41113	58.00
1.42780	58.00
1.44447	58.00
1.46113	58.00
1.47780	58.00
1.49447	58.00
1.51113	58.00
1.52780	58.00
1.54447	58.00
1.56113	58.00
1.57780	58.00
1.59447	58.00
1.61113	58.00
1.62780	58.00
1.64447	58.00
1.66113	58.00
1.67780	58.01
1.69447	58.00
1.71113	58.00
1.72780	58.00
1.74447	58.00
1.76113	58.00
1.77780	58.00
1.79447	58.00
1.81113	58.00
1.82780	58.00
1.84447	58.00
1.86113	58.00
1.87780	58.00
1.89447	58.00
1.91113	58.00
1.92780	58.00
1.94447	58.00
1.96113	58.00
1.97780	58.00
1.99447	58.00
2.01113	58.00
2.02780	58.00
2.04447	58.00
2.06113	58.00
2.07780	58.00
2.09447	58.00
2.11113	58.00
2.12780	58.00
2.14447	58.00
2.16113	58.00
2.17780	58.00
2.19447	58.00
2.21113	58.00
2.22780	58.00
2.24447	58.00
2.26113	58.00
2.27780	58.00
2.29447	58.00
2.31113	58.00
2.32780	58.00
2.34447	58.00
2.36113	58.00
2.37780	58.00
2.39447	57.99
2.41113	57.99
2.42780	58.00
2.44447	58.00
2.46113	58.00
2.47780	58.00
2.49447	58.00
2.51113	57.99
2.52780	57.98
2.54447	58.00
2.56113	58.00
2.57780	58.00
2.59447	58.00
2.61113	58.00
2.62780	58.00
2.64447	58.00
2.66113	58.00
2.67780	58.00
2.69447	58.00
2.71113	58.00
2.72780	58.00
2.74447	58.00
2.76113	58.00
2.77780	58.00
2.79447	58.00
2.81113	58.00
2.82780	58.00
2.84447	58.00
2.86113	58.00
2.87780	58.00
2.89447	58.00
2.91113	58.00
2.92780	58.00
2.94447	58.00
2.96113	58.00
2.97780	58.00
2.99447	58.00
3.01113	58.00
3.02780	58.00
3.04447	58.00
3.06113	58.00
3.07780	58.00
3.09447	58.00
3.11113	58.00
3.12780	58.00
3.14447	58.00
3.16113	58.00
3.17780	58.00
3.19447	58.00
3.21113	58.00
3.22780	58.00
3.24447	58.00
3.26113	58.00
3.27780	58.00
3.29447	58.00
3.31113	58.00
3.32780	58.00
3.34447	58.00
3.36113	58.00
3.37780	58.00
3.39447	58.00
3.41113	58.00
3.42780	58.00
3.44447	58.00
3.46113	58.00
3.47780	58.00
3.49447	58.00
3.51113	58.00
3.52780	58.00
3.54447	58.00
3.56113	58.00
3.57780	58.00
3.59447	58.00
3.61113	58.00
3.62780	58.00
3.64447	58.00
3.66113	58.00
3.67780	58.00
3.69447	58.00
3.71113	58.00
3.72780	58.00
3.74447	58.00
3.76113	58.00
3.77780	58.00
3.79447	58.00
3.81113	58.00
3.82780	58.00
3.84447	58.00
3.86113	58.00
3.87780	58.00
3.89447	58.00
3.91113	58.00
3.92780	58.00
3.94447	58.00
3.96113	58.00
3.97780	58.00
3.99447	58.00

[Status Trace (Carrier Gas Flow)]
Interval(msec)	1000
# of Points	240
Start Time(min)	0.011
End Time(min)	3.994
Intensity Units	
Intensity Multiplier	1
R.Time (min)	Intensity
0.01113	34.52
0.02780	34.53
0.04447	34.55
0.06113	34.54
0.07780	34.51
0.09447	34.52
0.11113	34.52
0.12780	34.52
0.14447	34.52
0.16113	34.52
0.17780	34.52
0.19447	34.52
0.21113	34.52
0.22780	34.52
0.24447	34.52
0.26113	34.52
0.27780	34.52
0.29447	34.52
0.31113	34.53
0.32780	34.52
0.34447	34.51
0.36113	34.51
0.37780	34.52
0.39447	34.53
0.41113	34.52
0.42780	34.52
0.44447	34.52
0.46113	34.52
0.47780	34.52
0.49447	34.52
0.51113	34.52
0.52780	34.52
0.54447	34.52
0.56113	34.52
0.57780	34.52
0.59447	34.52
0.61113	34.52
0.62780	34.52
0.64447	34.52
0.66113	34.52
0.67780	34.52
0.69447	34.52
0.71113	34.52
0.72780	34.52
0.74447	34.52
0.76113	34.52
0.77780	34.52
0.79447	34.52
0.81113	34.52
0.82780	34.52
0.84447	34.52
0.86113	34.52
0.87780	34.52
0.89447	34.52
0.91113	34.52
0.92780	34.52
0.94447	34.52
0.96113	34.52
0.97780	34.52
0.99447	34.52
1.01113	34.52
1.02780	34.52
1.04447	34.52
1.06113	34.52
1.07780	34.53
1.09447	34.53
1.11113	34.52
1.12780	34.52
1.14447	34.52
1.16113	34.52
1.17780	34.52
1.19447	34.52
1.21113	34.52
1.22780	34.52
1.24447	34.52
1.26113	34.52
1.27780	34.52
1.29447	34.52
1.31113	34.52
1.32780	34.52
1.34447	34.52
1.36113	34.52
1.37780	34.52
1.39447	34.52
1.41113	34.51
1.42780	34.52
1.44447	34.52
1.46113	34.52
1.47780	34.52
1.49447	34.52
1.51113	34.52
1.52780	34.52
1.54447	34.52
1.56113	34.52
1.57780	34.53
1.59447	34.52
1.61113	34.52
1.62780	34.52
1.64447	34.52
1.66113	34.52
1.67780	34.52
1.69447	34.52
1.71113	34.52
1.72780	34.52
1.74447	34.52
1.76113	34.52
1.77780	34.52
1.79447	34.52
1.81113	34.52
1.82780	34.52
1.84447	34.52
1.86113	34.52
1.87780	34.52
1.89447	34.52
1.91113	34.52
1.92780	34.52
1.94447	34.51
1.96113	34.52
1.97780	34.52
1.99447	34.52
2.01113	34.52
2.02780	34.52
2.04447	34.52
2.06113	34.52
2.07780	34.52
2.09447	34.52
2.11113	34.52
2.12780	34.52
2.14447	34.52
2.16113	34.52
2.17780	34.52
2.19447	34.52
2.21113	34.52
2.22780	34.52
2.24447	34.51
2.26113	34.52
2.27780	34.51
2.29447	34.52
2.31113	34.52
2.32780	34.53
2.34447	34.52
2.36113	34.52
2.37780	34.52
2.39447	34.52
2.41113	34.52
2.42780	34.51
2.44447	34.52
2.46113	34.51
2.47780	34.52
2.49447	34.52
2.51113	34.52
2.52780	34.52
2.54447	34.52
2.56113	34.52
2.57780	34.52
2.59447	34.52
2.61113	34.52
2.62780	34.52
2.64447	34.52
2.66113	34.52
2.67780	34.52
2.69447	34.52
2.71113	34.52
2.72780	34.52
2.74447	34.52
2.76113	34.52
2.77780	34.52
2.79447	34.52
2.81113	34.52
2.82780	34.52
2.84447	34.52
2.86113	34.52
2.87780	34.52
2.89447	34.52
2.91113	34.52
2.92780	34.52
2.94447	34.52
2.96113	34.51
2.97780	34.53
2.99447	34.52
3.01113	34.52
3.02780	34.52
3.04447	34.51
3.06113	34.53
3.07780	34.52
3.09447	34.51
3.11113	34.53
3.12780	34.53
3.14447	34.52
3.16113	34.51
3.17780	34.52
3.19447	34.52
3.21113	34.52
3.22780	34.52
3.24447	34.51
3.26113	34.52
3.27780	34.52
3.29447	34.53
3.31113	34.52
3.32780	34.51
3.34447	34.52
3.36113	34.52
3.37780	34.52
3.39447	34.52
3.41113	34.51
3.42780	34.52
3.44447	34.51
3.46113	34.52
3.47780	34.51
3.49447	34.52
3.51113	34.52
3.52780	34.52
3.54447	34.52
3.56113	34.52
3.57780	34.51
3.59447	34.52
3.61113	34.51
3.62780	34.52
3.64447	34.52
3.66113	34.51
3.67780	34.51
3.69447	34.51
3.71113	34.52
3.72780	34.52
3.74447	34.52
3.76113	34.52
3.77780	34.52
3.79447	34.51
3.81113	34.52
3.82780	34.52
3.84447	34.52
3.86113	34.51
3.87780	34.52
3.89447	34.52
3.91113	34.52
3.92780	34.52
3.94447	34.52
3.96113	34.52
3.97780	34.52
3.99447	34.52

[Status Trace (Column Flow)]
Interval(msec)	1000
# of Points	240
Start Time(min)	0.011
End Time(min)	3.994
Intensity Units	
Intensity Multiplier	1
R.Time (min)	Intensity
0.01113	5.53
0.02780	5.18
0.04447	5.48
0.06113	5.72
0.07780	5.65
0.09447	5.53
0.11113	5.53
0.12780	5.53
0.14447	5.53
0.16113	5.53
0.17780	5.53
0.19447	5.53
0.21113	5.53
0.22780	5.53
0.24447	5.53
0.26113	5.53
0.27780	5.53
0.29447	5.53
0.31113	5.53
0.32780	5.53
0.34447	5.53
0.36113	5.53
0.37780	5.53
0.39447	5.53
0.41113	5.53
0.42780	5.53
0.44447	5.53
0.46113	5.53
0.47780	5.53
0.49447	5.53
0.51113	5.53
0.52780	5.53
0.54447	5.53
0.56113	5.53
0.57780	5.53
0.59447	5.53
0.61113	5.53
0.62780	5.53
0.64447	5.53
0.66113	5.53
0.67780	5.53
0.69447	5.53
0.71113	5.53
0.72780	5.53
0.74447	5.53
0.76113	5.53
0.77780	5.53
0.79447	5.53
0.81113	5.53
0.82780	5.53
0.84447	5.53
0.86113	5.53
0.87780	5.53
0.89447	5.53
0.91113	5.53
0.92780	5.53
0.94447	5.53
0.96113	5.53
0.97780	5.53
0.99447	5.53
1.01113	5.53
1.02780	5.53
1.04447	5.53
1.06113	5.53
1.07780	5.53
1.09447	5.53
1.11113	5.53
1.12780	5.53
1.14447	5.53
1.16113	5.53
1.17780	5.53
1.19447	5.53
1.21113	5.53
1.22780	5.53
1.24447	5.53
1.26113	5.53
1.27780	5.53
1.29447	5.53
1.31113	5.53
1.32780	5.53
1.34447	5.53
1.36113	5.53
1.37780	5.53
1.39447	5.53
1.41113	5.53
1.42780	5.53
1.44447	5.53
1.46113	5.53
1.47780	5.53
1.49447	5.53
1.51113	5.53
1.52780	5.53
1.54447	5.53
1.56113	5.53
1.57780	5.53
1.59447	5.53
1.61113	5.53
1.62780	5.53
1.64447	5.52
1.66113	5.51
1.67780	5.50
1.69447	5.49
1.71113	5.48
1.72780	5.47
1.74447	5.46
1.76113	5.45
1.77780	5.44
1.79447	5.43
1.81113	5.42
1.82780	5.41
1.84447	5.40
1.86113	5.39
1.87780	5.38
1.89447	5.37
1.91113	5.36
1.92780	5.35
1.94447	5.34
1.96113	5.33
1.97780	5.32
1.99447	5.31
2.01113	5.30
2.02780	5.29
2.04447	5.28
2.06113	5.27
2.07780	5.26
2.09447	5.25
2.11113	5.24
2.12780	5.23
2.14447	5.22
2.16113	5.21
2.17780	5.20
2.19447	5.19
2.21113	5.18
2.22780	5.18
2.24447	5.17
2.26113	5.16
2.27780	5.15
2.29447	5.14
2.31113	5.13
2.32780	5.12
2.34447	5.11
2.36113	5.10
2.37780	5.10
2.39447	5.09
2.41113	5.09
2.42780	5.09
2.44447	5.09
2.46113	5.09
2.47780	5.09
2.49447	5.09
2.51113	5.09
2.52780	5.09
2.54447	5.09
2.56113	5.09
2.57780	5.09
2.59447	5.09
2.61113	5.09
2.62780	5.09
2.64447	5.09
2.66113	5.09
2.67780	5.09
2.69447	5.09
2.71113	5.09
2.72780	5.09
2.74447	5.09
2.76113	5.09
2.77780	5.09
2.79447	5.09
2.81113	5.09
2.82780	5.09
2.84447	5.09
2.86113	5.09
2.87780	5.09
2.89447	5.09
2.91113	5.09
2.92780	5.09
2.94447	5.09
2.96113	5.09
2.97780	5.09
2.99447	5.09
3.01113	5.09
3.02780	5.09
3.04447	5.09
3.06113	5.09
3.07780	5.09
3.09447	5.09
3.11113	5.09
3.12780	5.09
3.14447	5.09
3.16113	5.09
3.17780	5.09
3.19447	5.09
3.21113	5.09
3.22780	5.09
3.24447	5.09
3.26113	5.09
3.27780	5.08
3.29447	5.08
3.31113	5.09
3.32780	5.09
3.34447	5.09
3.36113	5.09
3.37780	5.09
3.39447	5.09
3.41113	5.09
3.42780	5.09
3.44447	5.09
3.46113	5.09
3.47780	5.09
3.49447	5.09
3.51113	5.09
3.52780	5.09
3.54447	5.09
3.56113	5.09
3.57780	5.09
3.59447	5.09
3.61113	5.09
3.62780	5.09
3.64447	5.09
3.66113	5.09
3.67780	5.09
3.69447	5.09
3.71113	5.09
3.72780	5.09
3.74447	5.09
3.76113	5.09
3.77780	5.09
3.79447	5.09
3.81113	5.09
3.82780	5.09
3.84447	5.09
3.86113	5.09
3.87780	5.09
3.89447	5.09
3.91113	5.08
3.92780	5.09
3.94447	5.09
3.96113	5.09
3.97780	5.09
3.99447	5.09

[Status Trace (Linear Velocity)]
Interval(msec)	1000
# of Points	240
Start Time(min)	0.011
End Time(min)	3.994
Intensity Units	
Intensity Multiplier	1
R.Time (min)	Intensity
0.01113	39.01
0.02780	37.05
0.04447	38.76
0.06113	40.06
0.07780	39.67
0.09447	39.01
0.11113	39.00
0.12780	39.02
0.14447	39.02
0.16113	39.02
0.17780	39.02
0.19447	39.02
0.21113	39.02
0.22780	39.01
0.24447	39.01
0.26113	39.01
0.27780	39.01
0.29447	39.02
0.31113	39.02
0.32780	39.02
0.34447	39.02
0.36113	39.02
0.37780	39.02
0.39447	39.02
0.41113	39.02
0.42780	39.02
0.44447	39.02
0.46113	39.02
0.47780	39.02
0.49447	39.02
0.51113	39.02
0.52780	39.02
0.54447	39.02
0.56113	39.02
0.57780	39.02
0.59447	39.02
0.61113	39.02
0.62780	39.01
0.64447	39.02
0.66113	39.02
0.67780	39.02
0.69447	39.02
0.71113	39.02
0.72780	39.02
0.74447	39.02
0.76113	39.02
0.77780	39.02
0.79447	39.02
0.81113	39.02
0.82780	39.02
0.84447	39.02
0.86113	39.02
0.87780	39.02
0.89447	39.02
0.91113	39.02
0.92780	39.02
0.94447	39.02
0.96113	39.02
0.97780	39.02
0.99447	39.02
1.01113	39.02
1.02780	39.02
1.04447	39.02
1.06113	39.02
1.07780	39.02
1.09447	39.02
1.11113	39.02
1.12780	39.02
1.14447	39.02
1.16113	39.02
1.17780	39.02
1.19447	39.02
1.21113	39.02
1.22780	39.02
1.24447	39.02
1.26113	39.02
1.27780	39.02
1.29447	39.02
1.31113	39.02
1.32780	39.02
1.34447	39.02
1.36113	39.02
1.37780	39.02
1.39447	39.02
1.41113	39.02
1.42780	39.02
1.44447	39.02
1.46113	39.02
1.47780	39.02
1.49447	39.02
1.51113	39.02
1.52780	39.02
1.54447	39.02
1.56113	39.02
1.57780	39.02
1.59447	39.02
1.61113	39.01
1.62780	39.00
1.64447	38.98
1.66113	38.96
1.67780	38.93
1.69447	38.89
1.71113	38.86
1.72780	38.82
1.74447	38.79
1.76113	38.76
1.77780	38.73
1.79447	38.70
1.81113	38.66
1.82780	38.63
1.84447	38.60
1.86113	38.57
1.87780	38.54
1.89447	38.51
1.91113	38.48
1.92780	38.45
1.94447	38.42
1.96113	38.39
1.97780	38.36
1.99447	38.33
2.01113	38.30
2.02780	38.27
2.04447	38.24
2.06113	38.21
2.07780	38.18
2.09447	38.15
2.11113	38.12
2.12780	38.09
2.14447	38.06
2.16113	38.03
2.17780	38.00
2.19447	37.97
2.21113	37.94
2.22780	37.91
2.24447	37.88
2.26113	37.85
2.27780	37.82
2.29447	37.79
2.31113	37.76
2.32780	37.73
2.34447	37.71
2.36113	37.68
2.37780	37.66
2.39447	37.65
2.41113	37.65
2.42780	37.66
2.44447	37.66
2.46113	37.66
2.47780	37.66
2.49447	37.66
2.51113	37.65
2.52780	37.64
2.54447	37.65
2.56113	37.65
2.57780	37.65
2.59447	37.65
2.61113	37.65
2.62780	37.65
2.64447	37.65
2.66113	37.65
2.67780	37.65
2.69447	37.65
2.71113	37.65
2.72780	37.65
2.74447	37.65
2.76113	37.64
2.77780	37.64
2.79447	37.64
2.81113	37.64
2.82780	37.64
2.84447	37.64
2.86113	37.64
2.87780	37.64
2.89447	37.64
2.91113	37.64
2.92780	37.64
2.94447	37.64
2.96113	37.64
2.97780	37.64
2.99447	37.64
3.01113	37.64
3.02780	37.63
3.04447	37.63
3.06113	37.63
3.07780	37.63
3.09447	37.63
3.11113	37.63
3.12780	37.63
3.14447	37.63
3.16113	37.63
3.17780	37.63
3.19447	37.63
3.21113	37.63
3.22780	37.63
3.24447	37.63
3.26113	37.63
3.27780	37.63
3.29447	37.63
3.31113	37.63
3.32780	37.63
3.34447	37.63
3.36113	37.63
3.37780	37.63
3.39447	37.63
3.41113	37.63
3.42780	37.63
3.44447	37.63
3.46113	37.63
3.47780	37.63
3.49447	37.63
3.51113	37.63
3.52780	37.63
3.54447	37.63
3.56113	37.63
3.57780	37.63
3.59447	37.63
3.61113	37.63
3.62780	37.63
3.64447	37.63
3.66113	37.63
3.67780	37.63
3.69447	37.63
3.71113	37.63
3.72780	37.63
3.74447	37.63
3.76113	37.63
3.77780	37.63
3.79447	37.63
3.81113	37.63
3.82780	37.63
3.84447	37.63
3.86113	37.63
3.87780	37.63
3.89447	37.63
3.91113	37.63
3.92780	37.63
3.94447	37.63
3.96113	37.63
3.97780	37.63
3.99447	37.63

