[Header]
Application Name	LabSolutions
Version	5.110
Data File Name	C:\Users\User\Desktop\GC Analyses\Jack\Nachusa Grasslands Sampling\T3 Timepoint July 12th\T3_07122022_067.gcd
Output Date	3/14/2023
Output Time	3:43:34 PM

[File Information]
Type	Data File
Generated	3/13/2023 9:57:57 PM
Generated by	System Administrator
Modified	3/13/2023 10:04:35 PM
Modified by	System Administrator

[Sample Information]
Operator Name	System Administrator
Acquired	3/13/2023 10:00:34 PM
Sample Type	0:Unknown
Level	0
Sample Name	067
Sample ID	067
ISTD Amount1	1
ISTD Amount2	1
ISTD Amount3	1
ISTD Amount4	1
ISTD Amount5	1
ISTD Amount6	1
ISTD Amount7	1
ISTD Amount8	1
ISTD Amount9	1
ISTD Amount10	1
ISTD Amount11	1
ISTD Amount12	1
ISTD Amount13	1
ISTD Amount14	1
ISTD Amount15	1
ISTD Amount16	1
ISTD Amount17	1
ISTD Amount18	1
ISTD Amount19	1
ISTD Amount20	1
ISTD Amount21	1
ISTD Amount22	1
ISTD Amount23	1
ISTD Amount24	1
ISTD Amount25	1
ISTD Amount26	1
ISTD Amount27	1
ISTD Amount28	1
ISTD Amount29	1
ISTD Amount30	1
ISTD Amount31	1
ISTD Amount32	1
Sample Amount	1
Dilution Factor	1
Vial#	66
Injection Volume	1
Injection Count	1
Bar Code	

[Original Files]
Data File	C:\Users\User\Desktop\GC Analyses\Jack\Nachusa Grasslands Sampling\T3 Timepoint July 12th\T3_07122022_067.gcd
Method File	C:\LabSolutions\Data\GHG_4min_2022\ghg3_togas_w_acet_4 min_new_int.gcm
Batch File	C:\LabSolutions\Data\AutoSamplerTesting\T3_07122022.gcb
Report Format File	c:\LabSolutions\System\DEFAULT.lsr

[File Description]


[Configuration]
Instrument Name	C0B7VH3-Instrument1
Instrument #	1
Line #	1
# of Detectors	3
Detector ID	DET#1	DET#2	DET#3
Detector Name	FID	PTCD	ECD
# of Channels	1	1	1

[Peak Table(Ch1)]
# of Peaks	4
Peak#	R.Time	I.Time	F.Time	Area	Height	A/H	Conc.	Mark	ID#	Name	k'	Plate #	Plate Ht.	Tailing	Resolution	Sep.Factor	Area Ratio	Height Ratio	Conc. %	Norm Conc.
1	1.476	1.432	1.534	25473	12566	2.027	179.840	   	1	CO	0.000	9651	15.542	1.269	0.000	0.000	0	0	19.579	19.579
2	1.571	1.538	1.619	4374	2239	1.953	84.582	   	2	CH4	0.065	11605	12.926	1.131	1.610	0.000	0	0	9.208	9.208
3	1.996	1.949	2.396	2606290	1249543	2.086	654.108	   	3	CO2	0.353	17479	8.582	1.344	7.165	5.462	0	0	71.213	71.213
4	2.854	2.528	3.753	5402	141	38.318	0.000	   	5	Acetylene	0.934	2918	51.400	1.919	6.315	2.648	0	0	0.000	0.000

[Peak Table(Ch2)]
# of Peaks	0

[Peak Table(Ch3)]
# of Peaks	5
Peak#	R.Time	I.Time	F.Time	Area	Height	A/H	Conc.	Mark	ID#	Name	k'	Plate #	Plate Ht.	Tailing	Resolution	Sep.Factor	Area Ratio	Height Ratio	Conc. %	Norm Conc.
1	2.462	2.323	2.510	2125	659	3.222	0.000	   			0.000	10181	14.733	0.000	0.000	0.000	0	0	0.000	0.000
2	2.532	2.510	2.583	1136	371	3.067	0.000	 V 			0.028	6131	24.467	0.000	0.614	0.000	0	0	0.000	0.000
3	2.601	2.583	2.686	606	163	3.704	0.000	 V 			0.057	1324	113.255	0.000	0.336	2.000	0	0	0.000	0.000
4	2.880	2.704	3.100	18667	4818	3.875	0.477	   	1	N2O	0.170	13113	11.439	1.521	1.442	3.000	0	0	100.000	100.000
5	3.368	3.206	3.995	16408	616	26.632	0.000	   	2	SF6	0.368	228	657.624	2.431	0.983	2.167	0	0	0.000	0.000

[Compound Results(Ch1)]
# of IDs	6
ID#	Name	R.Time	Area	Height	Conc.	Curve	3rd	2nd	1st	Constant	Area Ratio	Height Ratio	Conc. %	Norm Conc.
1	CO	1.476	25473	12566	179.840	Linear	0.000000e+00	0.000000e+00	1.416423e+002	0.000000e+00	0	0	19.579	19.579
2	CH4	1.571	4374	2239	84.582	Linear	0.000000e+00	0.000000e+00	5.171738e+001	0.000000e+00	0	0	9.208	9.208
3	CO2	1.996	2606290	1249543	654.108	Linear	0.000000e+00	0.000000e+00	3.984494e+003	0.000000e+00	0	0	71.213	71.213
4	Ethylene	0.000	0	0	0.000	Linear	0.000000e+00	0.000000e+00	0.000000e+00	0.000000e+00	0	0	0.000	0.000
5	Acetylene	2.854	5402	141	0.000	Linear	0.000000e+00	0.000000e+00	0.000000e+00	0.000000e+00	0	0	0.000	0.000
6	Ethane	0.000	0	0	0.000	Linear	0.000000e+00	0.000000e+00	0.000000e+00	0.000000e+00	0	0	0.000	0.000

[Compound Results(Ch2)]
# of IDs	5
ID#	Name	R.Time	Area	Height	Conc.	Curve	3rd	2nd	1st	Constant	Area Ratio	Height Ratio	Conc. %	Norm Conc.
1	Hydrogen	0.000	0	0	0.000	Linear	0.000000e+00	0.000000e+00	0.000000e+00	0.000000e+00	0	0	0.000	0.000
2	Oxygen	0.000	0	0	0.000	Linear	0.000000e+00	0.000000e+00	0.000000e+00	0.000000e+00	0	0	0.000	0.000
3	Nitrogen	0.000	0	0	0.000	Linear	0.000000e+00	0.000000e+00	0.000000e+00	0.000000e+00	0	0	0.000	0.000
4	Methane	0.000	0	0	0.000	Linear	0.000000e+00	0.000000e+00	0.000000e+00	0.000000e+00	0	0	0.000	0.000
5	Carbon Monoxide	0.000	0	0	0.000	Linear	0.000000e+00	0.000000e+00	0.000000e+00	0.000000e+00	0	0	0.000	0.000

[Compound Results(Ch3)]
# of IDs	2
ID#	Name	R.Time	Area	Height	Conc.	Curve	3rd	2nd	1st	Constant	Area Ratio	Height Ratio	Conc. %	Norm Conc.
1	N2O	2.880	18667	4818	0.477	Linear	0.000000e+00	0.000000e+00	3.915173e+004	0.000000e+00	0	0	100.000	100.000
2	SF6	3.368	16408	616	0.000	Linear	0.000000e+00	0.000000e+00	0.000000e+00	0.000000e+00	0	0	0.000	0.000

[Group Results(Ch1)]
# of Groups	0

[Group Results(Ch2)]
# of Groups	0

[Group Results(Ch3)]
# of Groups	0

[Chromatogram (Ch1)]
Interval(msec)	220
# of Points	1091
Start Time(min)	0.002
End Time(min)	3.998
R.Time (min)	Intensity
0.00167	-30
0.00533	-34
0.00900	-37
0.01267	-33
0.01633	-25
0.02000	-15
0.02367	-9
0.02733	-6
0.03100	-7
0.03467	-9
0.03833	-13
0.04200	-17
0.04567	-19
0.04933	-22
0.05300	-26
0.05667	-31
0.06033	-34
0.06400	-35
0.06767	-33
0.07133	-29
0.07500	-25
0.07867	-24
0.08233	-23
0.08600	-24
0.08967	-25
0.09333	-21
0.09700	-12
0.10067	-4
0.10433	1
0.10800	2
0.11167	-0
0.11533	-3
0.11900	-4
0.12267	-6
0.12633	-6
0.13000	-6
0.13367	-11
0.13733	-18
0.14100	-23
0.14467	-25
0.14833	-25
0.15200	-23
0.15567	-20
0.15933	-19
0.16300	-17
0.16667	-16
0.17033	-16
0.17400	-14
0.17767	-8
0.18133	-2
0.18500	3
0.18867	11
0.19233	21
0.19600	30
0.19967	33
0.20333	27
0.20700	16
0.21067	4
0.21433	-8
0.21800	-19
0.22167	-21
0.22533	-18
0.22900	-14
0.23267	-13
0.23633	-13
0.24000	-15
0.24367	-18
0.24733	-22
0.25100	-20
0.25467	-16
0.25833	-13
0.26200	-9
0.26567	-2
0.26933	5
0.27300	15
0.27667	24
0.28033	27
0.28400	26
0.28767	25
0.29133	23
0.29500	22
0.29867	25
0.30233	29
0.30600	33
0.30967	37
0.31333	47
0.31700	54
0.32067	55
0.32433	59
0.32800	58
0.33167	54
0.33533	48
0.33900	40
0.34267	35
0.34633	30
0.35000	28
0.35367	28
0.35733	27
0.36100	26
0.36467	26
0.36833	25
0.37200	28
0.37567	32
0.37933	34
0.38300	32
0.38667	34
0.39033	37
0.39400	38
0.39767	36
0.40133	33
0.40500	26
0.40867	17
0.41233	8
0.41600	5
0.41967	5
0.42333	6
0.42700	11
0.43067	15
0.43433	18
0.43800	21
0.44167	25
0.44533	30
0.44900	34
0.45267	32
0.45633	27
0.46000	22
0.46367	16
0.46733	11
0.47100	11
0.47467	15
0.47833	20
0.48200	15
0.48567	8
0.48933	0
0.49300	-7
0.49667	-9
0.50033	-7
0.50400	-1
0.50767	4
0.51133	10
0.51500	15
0.51867	22
0.52233	29
0.52600	31
0.52967	32
0.53333	32
0.53700	29
0.54067	25
0.54433	16
0.54800	7
0.55167	-0
0.55533	-3
0.55900	-3
0.56267	-7
0.56633	-12
0.57000	-13
0.57367	-11
0.57733	-11
0.58100	-12
0.58467	-15
0.58833	-17
0.59200	-17
0.59567	-14
0.59933	-5
0.60300	3
0.60667	9
0.61033	13
0.61400	13
0.61767	7
0.62133	-0
0.62500	-5
0.62867	-7
0.63233	-5
0.63600	0
0.63967	3
0.64333	4
0.64700	5
0.65067	6
0.65433	1
0.65800	-1
0.66167	3
0.66533	4
0.66900	5
0.67267	4
0.67633	2
0.68000	2
0.68367	9
0.68733	19
0.69100	20
0.69467	14
0.69833	10
0.70200	6
0.70567	3
0.70933	3
0.71300	6
0.71667	13
0.72033	19
0.72400	19
0.72767	15
0.73133	7
0.73500	-2
0.73867	-8
0.74233	-10
0.74600	-12
0.74967	-10
0.75333	-9
0.75700	-16
0.76067	-22
0.76433	-24
0.76800	-25
0.77167	-23
0.77533	-20
0.77900	-12
0.78267	-5
0.78633	-1
0.79000	2
0.79367	3
0.79733	-0
0.80100	-7
0.80467	-10
0.80833	-9
0.81200	-7
0.81567	-5
0.81933	-5
0.82300	-6
0.82667	-4
0.83033	1
0.83400	6
0.83767	4
0.84133	-0
0.84500	-2
0.84867	-2
0.85233	-1
0.85600	-0
0.85967	-2
0.86333	-5
0.86700	-5
0.87067	-3
0.87433	1
0.87800	2
0.88167	2
0.88533	2
0.88900	0
0.89267	-3
0.89633	-5
0.90000	-3
0.90367	7
0.90733	16
0.91100	22
0.91467	26
0.91833	22
0.92200	7
0.92567	-11
0.92933	-25
0.93300	-28
0.93667	-27
0.94033	-32
0.94400	-34
0.94767	-34
0.95133	-28
0.95500	-25
0.95867	-28
0.96233	-34
0.96600	-39
0.96967	-38
0.97333	-27
0.97700	-12
0.98067	-2
0.98433	-2
0.98800	-8
0.99167	-15
0.99533	-17
0.99900	-17
1.00267	-17
1.00633	-16
1.01000	-9
1.01367	-0
1.01733	8
1.02100	9
1.02467	2
1.02833	-10
1.03200	-21
1.03567	-30
1.03933	-35
1.04300	-35
1.04667	-33
1.05033	-30
1.05400	-27
1.05767	-23
1.06133	-21
1.06500	-20
1.06867	-18
1.07233	-13
1.07600	-12
1.07967	-9
1.08333	-2
1.08700	5
1.09067	7
1.09433	6
1.09800	4
1.10167	-0
1.10533	-1
1.10900	1
1.11267	1
1.11633	1
1.12000	-0
1.12367	-2
1.12733	-3
1.13100	1
1.13467	10
1.13833	16
1.14200	14
1.14567	4
1.14933	-12
1.15300	-24
1.15667	-33
1.16033	-37
1.16400	-39
1.16767	-35
1.17133	-24
1.17500	-13
1.17867	-7
1.18233	-7
1.18600	-7
1.18967	-5
1.19333	-8
1.19700	-12
1.20067	-12
1.20433	-6
1.20800	-1
1.21167	1
1.21533	-0
1.21900	-4
1.22267	-8
1.22633	-9
1.23000	-14
1.23367	-25
1.23733	-32
1.24100	-26
1.24467	-17
1.24833	-15
1.25200	-12
1.25567	-7
1.25933	-3
1.26300	-4
1.26667	-5
1.27033	-8
1.27400	-13
1.27767	-24
1.28133	-34
1.28500	-35
1.28867	-35
1.29233	-33
1.29600	-30
1.29967	-23
1.30333	-16
1.30700	-10
1.31067	-3
1.31433	1
1.31800	2
1.32167	-6
1.32533	-22
1.32900	-35
1.33267	-42
1.33633	-45
1.34000	-43
1.34367	-36
1.34733	-32
1.35100	-32
1.35467	-34
1.35833	-34
1.36200	-33
1.36567	-29
1.36933	-25
1.37300	-27
1.37667	-30
1.38033	-34
1.38400	-38
1.38767	-38
1.39133	-34
1.39500	-31
1.39867	-28
1.40233	-24
1.40600	-20
1.40967	-20
1.41333	-19
1.41700	-17
1.42067	-15
1.42433	-14
1.42800	-15
1.43167	-14
1.43533	-13
1.43900	-11
1.44267	11
1.44633	147
1.45000	579
1.45367	1629
1.45733	3522
1.46100	5958
1.46467	8373
1.46833	10375
1.47200	11789
1.47567	12500
1.47933	12389
1.48300	11428
1.48667	9791
1.49033	7824
1.49400	5887
1.49767	4213
1.50133	2898
1.50500	1927
1.50867	1236
1.51233	758
1.51600	434
1.51967	213
1.52333	65
1.52700	-33
1.53067	-96
1.53433	-133
1.53800	-142
1.54167	-99
1.54533	49
1.54900	347
1.55267	768
1.55633	1216
1.56000	1609
1.56367	1905
1.56733	2084
1.57100	2118
1.57467	1985
1.57833	1706
1.58200	1351
1.58567	996
1.58933	688
1.59300	443
1.59667	257
1.60033	127
1.60400	41
1.60767	-16
1.61133	-54
1.61500	-78
1.61867	-90
1.62233	-95
1.62600	-97
1.62967	-100
1.63333	-102
1.63700	-107
1.64067	-115
1.64433	-122
1.64800	-125
1.65167	-124
1.65533	-123
1.65900	-118
1.66267	-112
1.66633	-104
1.67000	-94
1.67367	-87
1.67733	-82
1.68100	-79
1.68467	-77
1.68833	-80
1.69200	-82
1.69567	-84
1.69933	-85
1.70300	-86
1.70667	-84
1.71033	-78
1.71400	-71
1.71767	-70
1.72133	-73
1.72500	-72
1.72867	-70
1.73233	-67
1.73600	-63
1.73967	-56
1.74333	-49
1.74700	-44
1.75067	-44
1.75433	-51
1.75800	-60
1.76167	-68
1.76533	-74
1.76900	-81
1.77267	-83
1.77633	-79
1.78000	-75
1.78367	-73
1.78733	-74
1.79100	-78
1.79467	-80
1.79833	-75
1.80200	-67
1.80567	-63
1.80933	-60
1.81300	-61
1.81667	-61
1.82033	-54
1.82400	-44
1.82767	-40
1.83133	-44
1.83500	-52
1.83867	-58
1.84233	-61
1.84600	-63
1.84967	-63
1.85333	-59
1.85700	-59
1.86067	-59
1.86433	-57
1.86800	-54
1.87167	-52
1.87533	-50
1.87900	-47
1.88267	-42
1.88633	-35
1.89000	-33
1.89367	-36
1.89733	-40
1.90100	-41
1.90467	-42
1.90833	-45
1.91200	-43
1.91567	-42
1.91933	-41
1.92300	-34
1.92667	-27
1.93033	-25
1.93400	-24
1.93767	-22
1.94133	-16
1.94500	-11
1.94867	-6
1.95233	6
1.95600	109
1.95967	787
1.96333	4260
1.96700	17712
1.97067	57440
1.97433	147659
1.97800	306143
1.98167	524906
1.98533	768745
1.98900	993137
1.99267	1161307
1.99633	1249573
2.00000	1248347
2.00367	1163451
2.00733	1015311
2.01100	833692
2.01467	648714
2.01833	482775
2.02200	347210
2.02567	243842
2.02933	168834
2.03300	116245
2.03667	80204
2.04033	55839
2.04400	39464
2.04767	28452
2.05133	21000
2.05500	15903
2.05867	12367
2.06233	9870
2.06600	8070
2.06967	6734
2.07333	5720
2.07700	4936
2.08067	4318
2.08433	3821
2.08800	3417
2.09167	3089
2.09533	2815
2.09900	2582
2.10267	2379
2.10633	2202
2.11000	2045
2.11367	1909
2.11733	1791
2.12100	1683
2.12467	1584
2.12833	1494
2.13200	1415
2.13567	1343
2.13933	1274
2.14300	1208
2.14667	1150
2.15033	1104
2.15400	1067
2.15767	1033
2.16133	996
2.16500	956
2.16867	915
2.17233	877
2.17600	844
2.17967	814
2.18333	788
2.18700	762
2.19067	737
2.19433	716
2.19800	701
2.20167	688
2.20533	673
2.20900	661
2.21267	650
2.21633	636
2.22000	623
2.22367	611
2.22733	595
2.23100	577
2.23467	559
2.23833	543
2.24200	531
2.24567	521
2.24933	513
2.25300	507
2.25667	500
2.26033	488
2.26400	476
2.26767	463
2.27133	451
2.27500	446
2.27867	442
2.28233	438
2.28600	431
2.28967	421
2.29333	412
2.29700	409
2.30067	410
2.30433	410
2.30800	410
2.31167	410
2.31533	408
2.31900	405
2.32267	396
2.32633	384
2.33000	376
2.33367	371
2.33733	368
2.34100	372
2.34467	378
2.34833	384
2.35200	382
2.35567	376
2.35933	370
2.36300	363
2.36667	354
2.37033	351
2.37400	351
2.37767	350
2.38133	350
2.38500	348
2.38867	344
2.39233	340
2.39600	334
2.39967	330
2.40333	332
2.40700	336
2.41067	337
2.41433	338
2.41800	340
2.42167	341
2.42533	337
2.42900	328
2.43267	327
2.43633	327
2.44000	323
2.44367	320
2.44733	320
2.45100	321
2.45467	323
2.45833	325
2.46200	328
2.46567	329
2.46933	329
2.47300	329
2.47667	329
2.48033	328
2.48400	326
2.48767	318
2.49133	305
2.49500	293
2.49867	282
2.50233	273
2.50600	270
2.50967	270
2.51333	272
2.51700	276
2.52067	278
2.52433	282
2.52800	287
2.53167	291
2.53533	294
2.53900	295
2.54267	291
2.54633	290
2.55000	293
2.55367	301
2.55733	309
2.56100	314
2.56467	312
2.56833	308
2.57200	307
2.57567	308
2.57933	313
2.58300	317
2.58667	318
2.59033	316
2.59400	313
2.59767	309
2.60133	302
2.60500	297
2.60867	298
2.61233	302
2.61600	306
2.61967	307
2.62333	309
2.62700	310
2.63067	308
2.63433	308
2.63800	309
2.64167	312
2.64533	317
2.64900	320
2.65267	323
2.65633	324
2.66000	322
2.66367	315
2.66733	308
2.67100	308
2.67467	310
2.67833	310
2.68200	311
2.68567	315
2.68933	317
2.69300	324
2.69667	340
2.70033	359
2.70400	375
2.70767	384
2.71133	382
2.71500	378
2.71867	375
2.72233	373
2.72600	376
2.72967	378
2.73333	377
2.73700	376
2.74067	372
2.74433	366
2.74800	357
2.75167	354
2.75533	353
2.75900	354
2.76267	358
2.76633	361
2.77000	365
2.77367	374
2.77733	382
2.78100	386
2.78467	387
2.78833	385
2.79200	382
2.79567	380
2.79933	381
2.80300	385
2.80667	390
2.81033	395
2.81400	398
2.81767	397
2.82133	392
2.82500	388
2.82867	384
2.83233	385
2.83600	394
2.83967	405
2.84333	412
2.84700	413
2.85067	415
2.85433	416
2.85800	413
2.86167	407
2.86533	398
2.86900	386
2.87267	372
2.87633	362
2.88000	355
2.88367	359
2.88733	365
2.89100	369
2.89467	373
2.89833	375
2.90200	375
2.90567	376
2.90933	381
2.91300	386
2.91667	386
2.92033	382
2.92400	381
2.92767	380
2.93133	382
2.93500	384
2.93867	380
2.94233	376
2.94600	374
2.94967	376
2.95333	382
2.95700	384
2.96067	383
2.96433	384
2.96800	383
2.97167	381
2.97533	379
2.97900	376
2.98267	374
2.98633	373
2.99000	376
2.99367	381
2.99733	389
3.00100	398
3.00467	402
3.00833	405
3.01200	408
3.01567	407
3.01933	402
3.02300	396
3.02667	388
3.03033	382
3.03400	377
3.03767	378
3.04133	380
3.04500	384
3.04867	389
3.05233	392
3.05600	397
3.05967	402
3.06333	401
3.06700	393
3.07067	385
3.07433	378
3.07800	374
3.08167	375
3.08533	377
3.08900	377
3.09267	377
3.09633	379
3.10000	378
3.10367	378
3.10733	381
3.11100	386
3.11467	389
3.11833	389
3.12200	386
3.12567	384
3.12933	386
3.13300	387
3.13667	385
3.14033	380
3.14400	371
3.14767	361
3.15133	353
3.15500	347
3.15867	343
3.16233	340
3.16600	341
3.16967	348
3.17333	355
3.17700	361
3.18067	365
3.18433	366
3.18800	365
3.19167	362
3.19533	357
3.19900	355
3.20267	357
3.20633	361
3.21000	370
3.21367	377
3.21733	380
3.22100	381
3.22467	378
3.22833	378
3.23200	375
3.23567	368
3.23933	355
3.24300	339
3.24667	330
3.25033	324
3.25400	327
3.25767	333
3.26133	339
3.26500	344
3.26867	346
3.27233	345
3.27600	340
3.27967	333
3.28333	331
3.28700	336
3.29067	342
3.29433	349
3.29800	352
3.30167	352
3.30533	350
3.30900	350
3.31267	353
3.31633	357
3.32000	359
3.32367	361
3.32733	362
3.33100	362
3.33467	363
3.33833	362
3.34200	360
3.34567	355
3.34933	348
3.35300	345
3.35667	349
3.36033	357
3.36400	363
3.36767	361
3.37133	346
3.37500	330
3.37867	322
3.38233	322
3.38600	326
3.38967	330
3.39333	334
3.39700	334
3.40067	330
3.40433	319
3.40800	309
3.41167	306
3.41533	308
3.41900	312
3.42267	314
3.42633	312
3.43000	307
3.43367	303
3.43733	307
3.44100	313
3.44467	312
3.44833	308
3.45200	306
3.45567	308
3.45933	309
3.46300	309
3.46667	313
3.47033	318
3.47400	316
3.47767	313
3.48133	312
3.48500	314
3.48867	316
3.49233	312
3.49600	304
3.49967	300
3.50333	304
3.50700	309
3.51067	307
3.51433	302
3.51800	295
3.52167	287
3.52533	284
3.52900	284
3.53267	288
3.53633	294
3.54000	309
3.54367	322
3.54733	328
3.55100	326
3.55467	316
3.55833	306
3.56200	295
3.56567	284
3.56933	273
3.57300	267
3.57667	269
3.58033	277
3.58400	290
3.58767	302
3.59133	307
3.59500	307
3.59867	298
3.60233	283
3.60600	270
3.60967	259
3.61333	255
3.61700	262
3.62067	267
3.62433	267
3.62800	270
3.63167	274
3.63533	275
3.63900	273
3.64267	273
3.64633	273
3.65000	270
3.65367	268
3.65733	267
3.66100	268
3.66467	265
3.66833	258
3.67200	254
3.67567	253
3.67933	254
3.68300	255
3.68667	258
3.69033	265
3.69400	272
3.69767	280
3.70133	281
3.70500	274
3.70867	264
3.71233	258
3.71600	253
3.71967	250
3.72333	249
3.72700	253
3.73067	258
3.73433	262
3.73800	266
3.74167	264
3.74533	259
3.74900	251
3.75267	243
3.75633	236
3.76000	231
3.76367	228
3.76733	225
3.77100	226
3.77467	230
3.77833	233
3.78200	239
3.78567	242
3.78933	242
3.79300	244
3.79667	246
3.80033	250
3.80400	255
3.80767	261
3.81133	266
3.81500	270
3.81867	270
3.82233	268
3.82600	265
3.82967	258
3.83333	247
3.83700	239
3.84067	234
3.84433	232
3.84800	229
3.85167	227
3.85533	223
3.85900	218
3.86267	217
3.86633	218
3.87000	221
3.87367	226
3.87733	232
3.88100	237
3.88467	240
3.88833	242
3.89200	243
3.89567	242
3.89933	236
3.90300	230
3.90667	230
3.91033	233
3.91400	234
3.91767	231
3.92133	228
3.92500	227
3.92867	225
3.93233	220
3.93600	219
3.93967	223
3.94333	227
3.94700	229
3.95067	230
3.95433	227
3.95800	224
3.96167	222
3.96533	224
3.96900	228
3.97267	230
3.97633	230
3.98000	221
3.98367	207
3.98733	195
3.99100	188
3.99467	190
3.99833	196

[Chromatogram (Ch2)]
Interval(msec)	220
# of Points	1091
Start Time(min)	0.002
End Time(min)	3.998
R.Time (min)	Intensity
0.00167	1
0.00533	1
0.00900	2
0.01267	2
0.01633	2
0.02000	2
0.02367	2
0.02733	2
0.03100	1
0.03467	1
0.03833	1
0.04200	1
0.04567	1
0.04933	1
0.05300	2
0.05667	2
0.06033	2
0.06400	2
0.06767	3
0.07133	3
0.07500	3
0.07867	3
0.08233	3
0.08600	2
0.08967	2
0.09333	2
0.09700	2
0.10067	1
0.10433	1
0.10800	1
0.11167	1
0.11533	0
0.11900	0
0.12267	-0
0.12633	-0
0.13000	0
0.13367	0
0.13733	0
0.14100	0
0.14467	1
0.14833	1
0.15200	1
0.15567	1
0.15933	2
0.16300	2
0.16667	2
0.17033	2
0.17400	2
0.17767	2
0.18133	2
0.18500	2
0.18867	1
0.19233	1
0.19600	0
0.19967	0
0.20333	-0
0.20700	-0
0.21067	-0
0.21433	-0
0.21800	-0
0.22167	-0
0.22533	-0
0.22900	-1
0.23267	-1
0.23633	-1
0.24000	-1
0.24367	-1
0.24733	-0
0.25100	-0
0.25467	0
0.25833	0
0.26200	0
0.26567	0
0.26933	-0
0.27300	-0
0.27667	-0
0.28033	-0
0.28400	-0
0.28767	-1
0.29133	-1
0.29500	-1
0.29867	-1
0.30233	-1
0.30600	-1
0.30967	-1
0.31333	-0
0.31700	-0
0.32067	0
0.32433	1
0.32800	1
0.33167	1
0.33533	1
0.33900	1
0.34267	1
0.34633	2
0.35000	2
0.35367	2
0.35733	2
0.36100	2
0.36467	2
0.36833	3
0.37200	3
0.37567	3
0.37933	4
0.38300	4
0.38667	4
0.39033	4
0.39400	4
0.39767	4
0.40133	4
0.40500	4
0.40867	4
0.41233	4
0.41600	4
0.41967	3
0.42333	3
0.42700	3
0.43067	3
0.43433	3
0.43800	3
0.44167	3
0.44533	3
0.44900	3
0.45267	3
0.45633	4
0.46000	4
0.46367	3
0.46733	3
0.47100	3
0.47467	3
0.47833	3
0.48200	3
0.48567	3
0.48933	3
0.49300	3
0.49667	3
0.50033	3
0.50400	3
0.50767	3
0.51133	3
0.51500	3
0.51867	2
0.52233	2
0.52600	2
0.52967	2
0.53333	2
0.53700	2
0.54067	1
0.54433	1
0.54800	1
0.55167	1
0.55533	1
0.55900	1
0.56267	1
0.56633	1
0.57000	0
0.57367	0
0.57733	0
0.58100	-0
0.58467	-0
0.58833	-0
0.59200	-0
0.59567	-0
0.59933	-0
0.60300	0
0.60667	0
0.61033	1
0.61400	1
0.61767	1
0.62133	1
0.62500	1
0.62867	1
0.63233	1
0.63600	1
0.63967	1
0.64333	1
0.64700	1
0.65067	1
0.65433	1
0.65800	1
0.66167	1
0.66533	1
0.66900	1
0.67267	1
0.67633	1
0.68000	1
0.68367	1
0.68733	1
0.69100	1
0.69467	1
0.69833	1
0.70200	1
0.70567	2
0.70933	2
0.71300	2
0.71667	2
0.72033	2
0.72400	2
0.72767	3
0.73133	3
0.73500	3
0.73867	3
0.74233	3
0.74600	3
0.74967	3
0.75333	3
0.75700	3
0.76067	3
0.76433	2
0.76800	2
0.77167	2
0.77533	2
0.77900	1
0.78267	1
0.78633	1
0.79000	0
0.79367	-0
0.79733	-1
0.80100	-1
0.80467	-1
0.80833	-2
0.81200	-2
0.81567	-2
0.81933	-2
0.82300	-3
0.82667	-3
0.83033	-3
0.83400	-4
0.83767	-4
0.84133	-4
0.84500	-3
0.84867	-3
0.85233	-3
0.85600	-3
0.85967	-2
0.86333	-2
0.86700	-2
0.87067	-2
0.87433	-2
0.87800	-2
0.88167	-2
0.88533	-2
0.88900	-2
0.89267	-2
0.89633	-2
0.90000	-2
0.90367	-2
0.90733	-2
0.91100	-2
0.91467	-1
0.91833	-1
0.92200	-1
0.92567	-1
0.92933	-0
0.93300	-0
0.93667	0
0.94033	0
0.94400	1
0.94767	1
0.95133	1
0.95500	1
0.95867	1
0.96233	0
0.96600	0
0.96967	0
0.97333	1
0.97700	1
0.98067	1
0.98433	1
0.98800	2
0.99167	2
0.99533	2
0.99900	2
1.00267	2
1.00633	2
1.01000	1
1.01367	1
1.01733	1
1.02100	1
1.02467	0
1.02833	-0
1.03200	-1
1.03567	-1
1.03933	-2
1.04300	-2
1.04667	-2
1.05033	-2
1.05400	-2
1.05767	-2
1.06133	-2
1.06500	-2
1.06867	-2
1.07233	-2
1.07600	-2
1.07967	-1
1.08333	-1
1.08700	-0
1.09067	-0
1.09433	-0
1.09800	-0
1.10167	-1
1.10533	-1
1.10900	-1
1.11267	-2
1.11633	-2
1.12000	-3
1.12367	-3
1.12733	-4
1.13100	-4
1.13467	-4
1.13833	-4
1.14200	-4
1.14567	-4
1.14933	-3
1.15300	-3
1.15667	-3
1.16033	-3
1.16400	-3
1.16767	-3
1.17133	-2
1.17500	-2
1.17867	-2
1.18233	-2
1.18600	-2
1.18967	-1
1.19333	-1
1.19700	-1
1.20067	-1
1.20433	-1
1.20800	-1
1.21167	-1
1.21533	-1
1.21900	-1
1.22267	-1
1.22633	-1
1.23000	-1
1.23367	-0
1.23733	-0
1.24100	-0
1.24467	-0
1.24833	-0
1.25200	0
1.25567	-0
1.25933	-0
1.26300	-0
1.26667	-0
1.27033	-0
1.27400	-0
1.27767	-0
1.28133	-1
1.28500	-1
1.28867	-1
1.29233	-1
1.29600	-1
1.29967	-1
1.30333	-2
1.30700	-2
1.31067	-2
1.31433	-2
1.31800	-2
1.32167	-2
1.32533	-2
1.32900	-2
1.33267	-2
1.33633	-3
1.34000	-3
1.34367	-3
1.34733	-3
1.35100	-3
1.35467	-2
1.35833	-2
1.36200	-2
1.36567	-1
1.36933	-1
1.37300	-1
1.37667	-0
1.38033	0
1.38400	0
1.38767	0
1.39133	0
1.39500	0
1.39867	0
1.40233	-0
1.40600	-1
1.40967	-1
1.41333	-2
1.41700	-2
1.42067	-2
1.42433	-3
1.42800	-3
1.43167	-3
1.43533	-3
1.43900	-3
1.44267	-3
1.44633	-3
1.45000	-3
1.45367	-3
1.45733	-3
1.46100	-3
1.46467	-3
1.46833	-3
1.47200	-3
1.47567	-2
1.47933	-2
1.48300	-2
1.48667	-2
1.49033	-3
1.49400	-3
1.49767	-3
1.50133	-3
1.50500	-3
1.50867	-3
1.51233	-3
1.51600	-3
1.51967	-4
1.52333	-4
1.52700	-4
1.53067	-4
1.53433	-4
1.53800	-4
1.54167	-4
1.54533	-4
1.54900	-4
1.55267	-3
1.55633	-3
1.56000	-3
1.56367	-2
1.56733	-2
1.57100	-2
1.57467	-2
1.57833	-2
1.58200	-2
1.58567	-2
1.58933	-2
1.59300	-2
1.59667	-2
1.60033	-3
1.60400	-4
1.60767	-5
1.61133	-6
1.61500	-9
1.61867	-11
1.62233	-14
1.62600	-17
1.62967	-20
1.63333	-24
1.63700	-27
1.64067	-30
1.64433	-33
1.64800	-37
1.65167	-40
1.65533	-44
1.65900	-47
1.66267	-51
1.66633	-54
1.67000	-59
1.67367	-63
1.67733	-67
1.68100	-72
1.68467	-76
1.68833	-81
1.69200	-85
1.69567	-88
1.69933	-91
1.70300	-94
1.70667	-97
1.71033	-99
1.71400	-100
1.71767	-102
1.72133	-103
1.72500	-104
1.72867	-105
1.73233	-106
1.73600	-106
1.73967	-107
1.74333	-107
1.74700	-107
1.75067	-108
1.75433	-108
1.75800	-109
1.76167	-109
1.76533	-109
1.76900	-109
1.77267	-109
1.77633	-109
1.78000	-110
1.78367	-110
1.78733	-111
1.79100	-112
1.79467	-112
1.79833	-112
1.80200	-112
1.80567	-112
1.80933	-112
1.81300	-112
1.81667	-112
1.82033	-112
1.82400	-111
1.82767	-111
1.83133	-110
1.83500	-110
1.83867	-111
1.84233	-111
1.84600	-112
1.84967	-112
1.85333	-112
1.85700	-112
1.86067	-112
1.86433	-112
1.86800	-112
1.87167	-113
1.87533	-113
1.87900	-113
1.88267	-114
1.88633	-114
1.89000	-114
1.89367	-114
1.89733	-114
1.90100	-114
1.90467	-113
1.90833	-113
1.91200	-112
1.91567	-112
1.91933	-112
1.92300	-112
1.92667	-112
1.93033	-112
1.93400	-112
1.93767	-112
1.94133	-112
1.94500	-111
1.94867	-111
1.95233	-111
1.95600	-111
1.95967	-111
1.96333	-110
1.96700	-109
1.97067	-108
1.97433	-107
1.97800	-106
1.98167	-106
1.98533	-106
1.98900	-106
1.99267	-106
1.99633	-105
2.00000	-105
2.00367	-105
2.00733	-104
2.01100	-104
2.01467	-104
2.01833	-103
2.02200	-103
2.02567	-102
2.02933	-102
2.03300	-102
2.03667	-102
2.04033	-102
2.04400	-103
2.04767	-103
2.05133	-103
2.05500	-102
2.05867	-102
2.06233	-101
2.06600	-101
2.06967	-100
2.07333	-100
2.07700	-99
2.08067	-99
2.08433	-99
2.08800	-99
2.09167	-99
2.09533	-98
2.09900	-97
2.10267	-96
2.10633	-96
2.11000	-96
2.11367	-96
2.11733	-96
2.12100	-96
2.12467	-97
2.12833	-97
2.13200	-97
2.13567	-96
2.13933	-96
2.14300	-96
2.14667	-96
2.15033	-96
2.15400	-96
2.15767	-95
2.16133	-95
2.16500	-95
2.16867	-94
2.17233	-94
2.17600	-94
2.17967	-93
2.18333	-93
2.18700	-92
2.19067	-92
2.19433	-91
2.19800	-91
2.20167	-90
2.20533	-90
2.20900	-89
2.21267	-89
2.21633	-89
2.22000	-89
2.22367	-89
2.22733	-89
2.23100	-89
2.23467	-88
2.23833	-88
2.24200	-87
2.24567	-87
2.24933	-86
2.25300	-85
2.25667	-85
2.26033	-84
2.26400	-84
2.26767	-83
2.27133	-83
2.27500	-82
2.27867	-82
2.28233	-82
2.28600	-82
2.28967	-82
2.29333	-82
2.29700	-82
2.30067	-82
2.30433	-82
2.30800	-81
2.31167	-81
2.31533	-81
2.31900	-80
2.32267	-80
2.32633	-80
2.33000	-80
2.33367	-79
2.33733	-79
2.34100	-79
2.34467	-78
2.34833	-78
2.35200	-77
2.35567	-75
2.35933	-74
2.36300	-72
2.36667	-69
2.37033	-66
2.37400	-63
2.37767	-59
2.38133	-55
2.38500	-51
2.38867	-47
2.39233	-42
2.39600	-38
2.39967	-34
2.40333	-29
2.40700	-25
2.41067	-22
2.41433	-19
2.41800	-17
2.42167	-15
2.42533	-14
2.42900	-12
2.43267	-11
2.43633	-10
2.44000	-9
2.44367	-8
2.44733	-7
2.45100	-6
2.45467	-5
2.45833	-4
2.46200	-3
2.46567	-2
2.46933	-1
2.47300	-0
2.47667	1
2.48033	2
2.48400	3
2.48767	4
2.49133	6
2.49500	6
2.49867	7
2.50233	8
2.50600	8
2.50967	9
2.51333	9
2.51700	10
2.52067	11
2.52433	11
2.52800	12
2.53167	12
2.53533	13
2.53900	13
2.54267	13
2.54633	14
2.55000	14
2.55367	15
2.55733	15
2.56100	16
2.56467	16
2.56833	16
2.57200	15
2.57567	14
2.57933	13
2.58300	13
2.58667	12
2.59033	12
2.59400	13
2.59767	13
2.60133	14
2.60500	15
2.60867	15
2.61233	15
2.61600	15
2.61967	15
2.62333	15
2.62700	16
2.63067	16
2.63433	17
2.63800	17
2.64167	17
2.64533	17
2.64900	17
2.65267	17
2.65633	18
2.66000	18
2.66367	19
2.66733	19
2.67100	20
2.67467	20
2.67833	21
2.68200	21
2.68567	21
2.68933	21
2.69300	21
2.69667	22
2.70033	22
2.70400	22
2.70767	22
2.71133	22
2.71500	22
2.71867	23
2.72233	23
2.72600	24
2.72967	24
2.73333	24
2.73700	25
2.74067	25
2.74433	26
2.74800	26
2.75167	27
2.75533	27
2.75900	27
2.76267	27
2.76633	27
2.77000	26
2.77367	26
2.77733	26
2.78100	25
2.78467	25
2.78833	25
2.79200	25
2.79567	25
2.79933	25
2.80300	25
2.80667	25
2.81033	25
2.81400	26
2.81767	26
2.82133	26
2.82500	26
2.82867	26
2.83233	26
2.83600	27
2.83967	26
2.84333	26
2.84700	24
2.85067	20
2.85433	14
2.85800	5
2.86167	-7
2.86533	-23
2.86900	-44
2.87267	-69
2.87633	-98
2.88000	-132
2.88367	-170
2.88733	-211
2.89100	-256
2.89467	-304
2.89833	-355
2.90200	-408
2.90567	-462
2.90933	-517
2.91300	-573
2.91667	-628
2.92033	-684
2.92400	-738
2.92767	-791
2.93133	-843
2.93500	-896
2.93867	-953
2.94233	-1012
2.94600	-1063
2.94967	-1095
2.95333	-1102
2.95700	-1084
2.96067	-1042
2.96433	-982
2.96800	-910
2.97167	-832
2.97533	-751
2.97900	-671
2.98267	-594
2.98633	-522
2.99000	-456
2.99367	-396
2.99733	-342
3.00100	-294
3.00467	-252
3.00833	-215
3.01200	-183
3.01567	-155
3.01933	-131
3.02300	-110
3.02667	-92
3.03033	-77
3.03400	-64
3.03767	-52
3.04133	-43
3.04500	-35
3.04867	-28
3.05233	-22
3.05600	-16
3.05967	-12
3.06333	-8
3.06700	-5
3.07067	-2
3.07433	0
3.07800	3
3.08167	5
3.08533	6
3.08900	8
3.09267	9
3.09633	10
3.10000	11
3.10367	12
3.10733	13
3.11100	13
3.11467	14
3.11833	14
3.12200	14
3.12567	15
3.12933	15
3.13300	15
3.13667	16
3.14033	16
3.14400	16
3.14767	17
3.15133	17
3.15500	17
3.15867	17
3.16233	18
3.16600	18
3.16967	19
3.17333	19
3.17700	20
3.18067	20
3.18433	20
3.18800	20
3.19167	20
3.19533	21
3.19900	21
3.20267	21
3.20633	21
3.21000	21
3.21367	21
3.21733	21
3.22100	20
3.22467	20
3.22833	20
3.23200	21
3.23567	21
3.23933	21
3.24300	21
3.24667	21
3.25033	22
3.25400	22
3.25767	22
3.26133	22
3.26500	23
3.26867	23
3.27233	23
3.27600	24
3.27967	24
3.28333	24
3.28700	24
3.29067	24
3.29433	24
3.29800	24
3.30167	24
3.30533	25
3.30900	25
3.31267	25
3.31633	25
3.32000	25
3.32367	25
3.32733	25
3.33100	25
3.33467	25
3.33833	25
3.34200	25
3.34567	25
3.34933	25
3.35300	25
3.35667	25
3.36033	26
3.36400	26
3.36767	26
3.37133	26
3.37500	26
3.37867	26
3.38233	26
3.38600	25
3.38967	25
3.39333	25
3.39700	25
3.40067	25
3.40433	24
3.40800	24
3.41167	24
3.41533	24
3.41900	24
3.42267	24
3.42633	24
3.43000	25
3.43367	25
3.43733	25
3.44100	26
3.44467	26
3.44833	26
3.45200	26
3.45567	26
3.45933	27
3.46300	27
3.46667	27
3.47033	27
3.47400	27
3.47767	27
3.48133	27
3.48500	28
3.48867	28
3.49233	28
3.49600	28
3.49967	28
3.50333	28
3.50700	28
3.51067	28
3.51433	28
3.51800	29
3.52167	29
3.52533	29
3.52900	29
3.53267	30
3.53633	30
3.54000	30
3.54367	30
3.54733	30
3.55100	30
3.55467	29
3.55833	29
3.56200	29
3.56567	29
3.56933	29
3.57300	28
3.57667	28
3.58033	28
3.58400	28
3.58767	28
3.59133	28
3.59500	27
3.59867	27
3.60233	27
3.60600	27
3.60967	27
3.61333	27
3.61700	27
3.62067	27
3.62433	26
3.62800	26
3.63167	26
3.63533	26
3.63900	26
3.64267	26
3.64633	26
3.65000	26
3.65367	26
3.65733	27
3.66100	27
3.66467	27
3.66833	27
3.67200	27
3.67567	27
3.67933	27
3.68300	27
3.68667	27
3.69033	28
3.69400	28
3.69767	28
3.70133	27
3.70500	27
3.70867	27
3.71233	27
3.71600	27
3.71967	27
3.72333	27
3.72700	27
3.73067	27
3.73433	27
3.73800	27
3.74167	27
3.74533	28
3.74900	28
3.75267	28
3.75633	27
3.76000	27
3.76367	26
3.76733	26
3.77100	26
3.77467	25
3.77833	25
3.78200	25
3.78567	25
3.78933	25
3.79300	25
3.79667	25
3.80033	25
3.80400	25
3.80767	25
3.81133	25
3.81500	25
3.81867	25
3.82233	25
3.82600	26
3.82967	26
3.83333	26
3.83700	25
3.84067	25
3.84433	25
3.84800	25
3.85167	25
3.85533	25
3.85900	25
3.86267	25
3.86633	26
3.87000	26
3.87367	26
3.87733	26
3.88100	26
3.88467	26
3.88833	26
3.89200	26
3.89567	26
3.89933	25
3.90300	25
3.90667	25
3.91033	25
3.91400	25
3.91767	25
3.92133	25
3.92500	26
3.92867	26
3.93233	26
3.93600	26
3.93967	26
3.94333	26
3.94700	26
3.95067	26
3.95433	26
3.95800	27
3.96167	27
3.96533	27
3.96900	27
3.97267	27
3.97633	27
3.98000	27
3.98367	27
3.98733	27
3.99100	26
3.99467	26
3.99833	26

[Chromatogram (Ch3)]
Interval(msec)	220
# of Points	1091
Start Time(min)	0.002
End Time(min)	3.998
R.Time (min)	Intensity
0.00167	-0
0.00533	-3
0.00900	-7
0.01267	-10
0.01633	-13
0.02000	-13
0.02367	-13
0.02733	-11
0.03100	-11
0.03467	-12
0.03833	-13
0.04200	-12
0.04567	-10
0.04933	-8
0.05300	-8
0.05667	-8
0.06033	-8
0.06400	-8
0.06767	-8
0.07133	-8
0.07500	-8
0.07867	-7
0.08233	-8
0.08600	-7
0.08967	-6
0.09333	-7
0.09700	-6
0.10067	-6
0.10433	-7
0.10800	-6
0.11167	-5
0.11533	-6
0.11900	-7
0.12267	-8
0.12633	-8
0.13000	-9
0.13367	-10
0.13733	-12
0.14100	-13
0.14467	-11
0.14833	-9
0.15200	-10
0.15567	-14
0.15933	-16
0.16300	-18
0.16667	-17
0.17033	-15
0.17400	-12
0.17767	-10
0.18133	-8
0.18500	-8
0.18867	-8
0.19233	-9
0.19600	-10
0.19967	-10
0.20333	-10
0.20700	-9
0.21067	-9
0.21433	-9
0.21800	-9
0.22167	-9
0.22533	-9
0.22900	-7
0.23267	-5
0.23633	-4
0.24000	-4
0.24367	-3
0.24733	-2
0.25100	-1
0.25467	-2
0.25833	-3
0.26200	-2
0.26567	-2
0.26933	-1
0.27300	-4
0.27667	-8
0.28033	-10
0.28400	-10
0.28767	-10
0.29133	-12
0.29500	-11
0.29867	-8
0.30233	-6
0.30600	-5
0.30967	-6
0.31333	-8
0.31700	-8
0.32067	-8
0.32433	-7
0.32800	-8
0.33167	-7
0.33533	-7
0.33900	-8
0.34267	-9
0.34633	-10
0.35000	-10
0.35367	-9
0.35733	-9
0.36100	-9
0.36467	-9
0.36833	-9
0.37200	-9
0.37567	-9
0.37933	-9
0.38300	-8
0.38667	-6
0.39033	-5
0.39400	-4
0.39767	-5
0.40133	-6
0.40500	-7
0.40867	-7
0.41233	-9
0.41600	-9
0.41967	-8
0.42333	-8
0.42700	-8
0.43067	-7
0.43433	-6
0.43800	-7
0.44167	-10
0.44533	-12
0.44900	-13
0.45267	-12
0.45633	-11
0.46000	-10
0.46367	-11
0.46733	-12
0.47100	-12
0.47467	-13
0.47833	-13
0.48200	-11
0.48567	-10
0.48933	-9
0.49300	-10
0.49667	-11
0.50033	-11
0.50400	-11
0.50767	-9
0.51133	-8
0.51500	-7
0.51867	-6
0.52233	-6
0.52600	-8
0.52967	-7
0.53333	-8
0.53700	-10
0.54067	-10
0.54433	-8
0.54800	-7
0.55167	-8
0.55533	-7
0.55900	-8
0.56267	-8
0.56633	-8
0.57000	-7
0.57367	-8
0.57733	-6
0.58100	-4
0.58467	-6
0.58833	-8
0.59200	-8
0.59567	-8
0.59933	-8
0.60300	-7
0.60667	-8
0.61033	-8
0.61400	-8
0.61767	-8
0.62133	-8
0.62500	-8
0.62867	-9
0.63233	-10
0.63600	-11
0.63967	-10
0.64333	-9
0.64700	-7
0.65067	-5
0.65433	-6
0.65800	-8
0.66167	-9
0.66533	-8
0.66900	-7
0.67267	-6
0.67633	-5
0.68000	-4
0.68367	-4
0.68733	-4
0.69100	-3
0.69467	-5
0.69833	-6
0.70200	-5
0.70567	-6
0.70933	-6
0.71300	-7
0.71667	-10
0.72033	-10
0.72400	-8
0.72767	-7
0.73133	-6
0.73500	-3
0.73867	-2
0.74233	-2
0.74600	-3
0.74967	-4
0.75333	-5
0.75700	-6
0.76067	-6
0.76433	-6
0.76800	-6
0.77167	-5
0.77533	-3
0.77900	-2
0.78267	-2
0.78633	-3
0.79000	-3
0.79367	-4
0.79733	-6
0.80100	-7
0.80467	-7
0.80833	-6
0.81200	-3
0.81567	-2
0.81933	-3
0.82300	-4
0.82667	-3
0.83033	-3
0.83400	-5
0.83767	-3
0.84133	-3
0.84500	-2
0.84867	-1
0.85233	-2
0.85600	0
0.85967	1
0.86333	1
0.86700	0
0.87067	1
0.87433	0
0.87800	-1
0.88167	-2
0.88533	-1
0.88900	1
0.89267	-0
0.89633	-1
0.90000	-1
0.90367	-0
0.90733	-1
0.91100	1
0.91467	1
0.91833	1
0.92200	2
0.92567	5
0.92933	6
0.93300	5
0.93667	3
0.94033	3
0.94400	2
0.94767	1
0.95133	1
0.95500	2
0.95867	4
0.96233	3
0.96600	2
0.96967	2
0.97333	0
0.97700	-1
0.98067	-1
0.98433	0
0.98800	-0
0.99167	1
0.99533	5
0.99900	6
1.00267	5
1.00633	6
1.01000	6
1.01367	5
1.01733	5
1.02100	4
1.02467	2
1.02833	2
1.03200	3
1.03567	3
1.03933	4
1.04300	4
1.04667	4
1.05033	4
1.05400	5
1.05767	6
1.06133	7
1.06500	7
1.06867	6
1.07233	4
1.07600	2
1.07967	0
1.08333	-2
1.08700	-0
1.09067	0
1.09433	-1
1.09800	-2
1.10167	-1
1.10533	2
1.10900	5
1.11267	5
1.11633	6
1.12000	8
1.12367	7
1.12733	7
1.13100	7
1.13467	7
1.13833	6
1.14200	7
1.14567	7
1.14933	6
1.15300	6
1.15667	5
1.16033	4
1.16400	2
1.16767	-1
1.17133	-1
1.17500	0
1.17867	2
1.18233	4
1.18600	5
1.18967	7
1.19333	8
1.19700	8
1.20067	7
1.20433	6
1.20800	4
1.21167	4
1.21533	5
1.21900	5
1.22267	4
1.22633	1
1.23000	1
1.23367	2
1.23733	4
1.24100	5
1.24467	5
1.24833	5
1.25200	6
1.25567	7
1.25933	6
1.26300	5
1.26667	5
1.27033	7
1.27400	9
1.27767	11
1.28133	12
1.28500	14
1.28867	13
1.29233	14
1.29600	14
1.29967	13
1.30333	14
1.30700	14
1.31067	11
1.31433	9
1.31800	7
1.32167	7
1.32533	8
1.32900	9
1.33267	10
1.33633	11
1.34000	12
1.34367	10
1.34733	9
1.35100	11
1.35467	12
1.35833	13
1.36200	14
1.36567	16
1.36933	15
1.37300	12
1.37667	11
1.38033	10
1.38400	11
1.38767	10
1.39133	10
1.39500	10
1.39867	9
1.40233	7
1.40600	8
1.40967	9
1.41333	9
1.41700	9
1.42067	11
1.42433	12
1.42800	14
1.43167	15
1.43533	17
1.43900	18
1.44267	17
1.44633	18
1.45000	16
1.45367	15
1.45733	12
1.46100	11
1.46467	11
1.46833	10
1.47200	11
1.47567	11
1.47933	10
1.48300	9
1.48667	10
1.49033	11
1.49400	10
1.49767	8
1.50133	7
1.50500	8
1.50867	8
1.51233	11
1.51600	12
1.51967	14
1.52333	14
1.52700	12
1.53067	10
1.53433	10
1.53800	11
1.54167	12
1.54533	13
1.54900	13
1.55267	12
1.55633	11
1.56000	11
1.56367	11
1.56733	11
1.57100	13
1.57467	14
1.57833	14
1.58200	15
1.58567	17
1.58933	18
1.59300	16
1.59667	14
1.60033	11
1.60400	11
1.60767	12
1.61133	12
1.61500	13
1.61867	15
1.62233	17
1.62600	19
1.62967	19
1.63333	21
1.63700	21
1.64067	19
1.64433	18
1.64800	19
1.65167	21
1.65533	22
1.65900	23
1.66267	23
1.66633	24
1.67000	24
1.67367	25
1.67733	26
1.68100	25
1.68467	26
1.68833	28
1.69200	29
1.69567	29
1.69933	29
1.70300	28
1.70667	28
1.71033	29
1.71400	28
1.71767	25
1.72133	25
1.72500	27
1.72867	29
1.73233	31
1.73600	33
1.73967	34
1.74333	35
1.74700	35
1.75067	35
1.75433	32
1.75800	30
1.76167	31
1.76533	33
1.76900	36
1.77267	36
1.77633	36
1.78000	39
1.78367	42
1.78733	43
1.79100	41
1.79467	42
1.79833	42
1.80200	43
1.80567	45
1.80933	46
1.81300	45
1.81667	45
1.82033	45
1.82400	45
1.82767	45
1.83133	47
1.83500	48
1.83867	48
1.84233	50
1.84600	49
1.84967	49
1.85333	49
1.85700	48
1.86067	50
1.86433	51
1.86800	51
1.87167	52
1.87533	53
1.87900	56
1.88267	56
1.88633	56
1.89000	55
1.89367	54
1.89733	54
1.90100	58
1.90467	61
1.90833	63
1.91200	63
1.91567	63
1.91933	63
1.92300	63
1.92667	63
1.93033	63
1.93400	63
1.93767	63
1.94133	64
1.94500	65
1.94867	66
1.95233	67
1.95600	69
1.95967	71
1.96333	71
1.96700	72
1.97067	73
1.97433	76
1.97800	77
1.98167	77
1.98533	78
1.98900	79
1.99267	81
1.99633	85
2.00000	88
2.00367	88
2.00733	89
2.01100	91
2.01467	91
2.01833	91
2.02200	92
2.02567	94
2.02933	95
2.03300	97
2.03667	99
2.04033	102
2.04400	101
2.04767	101
2.05133	100
2.05500	101
2.05867	104
2.06233	108
2.06600	110
2.06967	111
2.07333	112
2.07700	112
2.08067	113
2.08433	114
2.08800	114
2.09167	114
2.09533	117
2.09900	118
2.10267	119
2.10633	122
2.11000	124
2.11367	123
2.11733	121
2.12100	123
2.12467	124
2.12833	125
2.13200	126
2.13567	127
2.13933	129
2.14300	133
2.14667	136
2.15033	136
2.15400	139
2.15767	142
2.16133	143
2.16500	145
2.16867	146
2.17233	146
2.17600	144
2.17967	146
2.18333	150
2.18700	153
2.19067	153
2.19433	153
2.19800	155
2.20167	157
2.20533	160
2.20900	160
2.21267	163
2.21633	166
2.22000	169
2.22367	170
2.22733	170
2.23100	172
2.23467	175
2.23833	178
2.24200	180
2.24567	182
2.24933	184
2.25300	183
2.25667	182
2.26033	180
2.26400	181
2.26767	184
2.27133	186
2.27500	188
2.27867	190
2.28233	193
2.28600	195
2.28967	197
2.29333	197
2.29700	197
2.30067	198
2.30433	199
2.30800	201
2.31167	202
2.31533	205
2.31900	208
2.32267	209
2.32633	211
2.33000	213
2.33367	215
2.33733	216
2.34100	216
2.34467	218
2.34833	219
2.35200	220
2.35567	221
2.35933	223
2.36300	224
2.36667	226
2.37033	228
2.37400	230
2.37767	230
2.38133	230
2.38500	230
2.38867	230
2.39233	229
2.39600	230
2.39967	233
2.40333	238
2.40700	242
2.41067	246
2.41433	249
2.41800	252
2.42167	254
2.42533	256
2.42900	256
2.43267	256
2.43633	257
2.44000	259
2.44367	312
2.44733	455
2.45100	614
2.45467	747
2.45833	824
2.46200	831
2.46567	798
2.46933	757
2.47300	727
2.47667	711
2.48033	696
2.48400	666
2.48767	624
2.49133	573
2.49500	525
2.49867	487
2.50233	463
2.50600	450
2.50967	444
2.51333	449
2.51700	467
2.52067	492
2.52433	512
2.52800	523
2.53167	524
2.53533	510
2.53900	484
2.54267	452
2.54633	422
2.55000	394
2.55367	367
2.55733	347
2.56100	330
2.56467	316
2.56833	305
2.57200	299
2.57567	295
2.57933	292
2.58300	291
2.58667	291
2.59033	293
2.59400	296
2.59767	298
2.60133	298
2.60500	294
2.60867	288
2.61233	282
2.61600	273
2.61967	264
2.62333	256
2.62700	249
2.63067	242
2.63433	234
2.63800	225
2.64167	215
2.64533	207
2.64900	198
2.65267	189
2.65633	180
2.66000	171
2.66367	161
2.66733	150
2.67100	139
2.67467	130
2.67833	123
2.68200	117
2.68567	112
2.68933	108
2.69300	106
2.69667	107
2.70033	109
2.70400	114
2.70767	117
2.71133	119
2.71500	121
2.71867	124
2.72233	129
2.72600	132
2.72967	133
2.73333	134
2.73700	137
2.74067	139
2.74433	141
2.74800	144
2.75167	148
2.75533	152
2.75900	153
2.76267	156
2.76633	156
2.77000	156
2.77367	157
2.77733	160
2.78100	164
2.78467	166
2.78833	168
2.79200	172
2.79567	177
2.79933	181
2.80300	186
2.80667	190
2.81033	193
2.81400	197
2.81767	205
2.82133	218
2.82500	237
2.82867	269
2.83233	333
2.83600	445
2.83967	628
2.84333	901
2.84700	1275
2.85067	1747
2.85433	2296
2.85800	2884
2.86167	3468
2.86533	4002
2.86900	4442
2.87267	4756
2.87633	4925
2.88000	4952
2.88367	4853
2.88733	4655
2.89100	4383
2.89467	4064
2.89833	3721
2.90200	3374
2.90567	3040
2.90933	2724
2.91300	2431
2.91667	2164
2.92033	1922
2.92400	1704
2.92767	1508
2.93133	1337
2.93500	1186
2.93867	1050
2.94233	933
2.94600	833
2.94967	748
2.95333	672
2.95700	607
2.96067	547
2.96433	495
2.96800	452
2.97167	414
2.97533	383
2.97900	354
2.98267	328
2.98633	306
2.99000	286
2.99367	268
2.99733	252
3.00100	240
3.00467	229
3.00833	221
3.01200	213
3.01567	205
3.01933	199
3.02300	194
3.02667	190
3.03033	186
3.03400	184
3.03767	181
3.04133	179
3.04500	178
3.04867	176
3.05233	174
3.05600	171
3.05967	168
3.06333	167
3.06700	167
3.07067	165
3.07433	164
3.07800	161
3.08167	162
3.08533	162
3.08900	163
3.09267	161
3.09633	161
3.10000	160
3.10367	160
3.10733	162
3.11100	163
3.11467	163
3.11833	162
3.12200	162
3.12567	161
3.12933	159
3.13300	158
3.13667	158
3.14033	158
3.14400	159
3.14767	159
3.15133	160
3.15500	160
3.15867	161
3.16233	162
3.16600	162
3.16967	162
3.17333	164
3.17700	167
3.18067	167
3.18433	170
3.18800	170
3.19167	162
3.19533	150
3.19900	143
3.20267	143
3.20633	153
3.21000	168
3.21367	189
3.21733	218
3.22100	254
3.22467	296
3.22833	341
3.23200	387
3.23567	431
3.23933	472
3.24300	508
3.24667	541
3.25033	570
3.25400	596
3.25767	621
3.26133	644
3.26500	662
3.26867	676
3.27233	689
3.27600	702
3.27967	714
3.28333	723
3.28700	731
3.29067	737
3.29433	744
3.29800	751
3.30167	758
3.30533	766
3.30900	775
3.31267	784
3.31633	791
3.32000	797
3.32367	803
3.32733	809
3.33100	816
3.33467	822
3.33833	829
3.34200	835
3.34567	841
3.34933	845
3.35300	848
3.35667	852
3.36033	854
3.36400	856
3.36767	859
3.37133	861
3.37500	863
3.37867	864
3.38233	862
3.38600	861
3.38967	861
3.39333	861
3.39700	862
3.40067	861
3.40433	861
3.40800	861
3.41167	861
3.41533	860
3.41900	857
3.42267	854
3.42633	852
3.43000	851
3.43367	849
3.43733	845
3.44100	841
3.44467	837
3.44833	832
3.45200	829
3.45567	827
3.45933	824
3.46300	821
3.46667	820
3.47033	818
3.47400	815
3.47767	812
3.48133	809
3.48500	805
3.48867	801
3.49233	799
3.49600	797
3.49967	795
3.50333	794
3.50700	790
3.51067	787
3.51433	787
3.51800	788
3.52167	787
3.52533	786
3.52900	786
3.53267	786
3.53633	786
3.54000	785
3.54367	785
3.54733	784
3.55100	783
3.55467	783
3.55833	783
3.56200	783
3.56567	783
3.56933	782
3.57300	781
3.57667	780
3.58033	777
3.58400	775
3.58767	775
3.59133	776
3.59500	777
3.59867	776
3.60233	773
3.60600	773
3.60967	774
3.61333	774
3.61700	776
3.62067	779
3.62433	778
3.62800	776
3.63167	774
3.63533	774
3.63900	773
3.64267	772
3.64633	772
3.65000	771
3.65367	770
3.65733	766
3.66100	762
3.66467	759
3.66833	757
3.67200	757
3.67567	756
3.67933	754
3.68300	752
3.68667	749
3.69033	745
3.69400	743
3.69767	742
3.70133	740
3.70500	739
3.70867	740
3.71233	740
3.71600	741
3.71967	740
3.72333	736
3.72700	732
3.73067	729
3.73433	725
3.73800	721
3.74167	719
3.74533	716
3.74900	714
3.75267	714
3.75633	712
3.76000	711
3.76367	710
3.76733	710
3.77100	710
3.77467	710
3.77833	710
3.78200	709
3.78567	705
3.78933	701
3.79300	698
3.79667	696
3.80033	693
3.80400	691
3.80767	690
3.81133	691
3.81500	691
3.81867	688
3.82233	686
3.82600	681
3.82967	676
3.83333	672
3.83700	669
3.84067	667
3.84433	665
3.84800	666
3.85167	666
3.85533	664
3.85900	661
3.86267	658
3.86633	657
3.87000	656
3.87367	654
3.87733	651
3.88100	647
3.88467	646
3.88833	647
3.89200	646
3.89567	646
3.89933	642
3.90300	638
3.90667	634
3.91033	632
3.91400	630
3.91767	627
3.92133	625
3.92500	623
3.92867	623
3.93233	624
3.93600	622
3.93967	620
3.94333	616
3.94700	615
3.95067	615
3.95433	612
3.95800	609
3.96167	607
3.96533	606
3.96900	604
3.97267	602
3.97633	601
3.98000	600
3.98367	598
3.98733	594
3.99100	594
3.99467	593
3.99833	590

[Status Trace (Column Oven Temperature)]
Interval(msec)	1000
# of Points	240
Start Time(min)	0.006
End Time(min)	3.989
Intensity Units	
Intensity Multiplier	1
R.Time (min)	Intensity
0.00613	35.07
0.02280	35.05
0.03947	35.05
0.05613	35.04
0.07280	35.03
0.08947	35.04
0.10613	35.05
0.12280	35.05
0.13947	35.05
0.15613	35.04
0.17280	35.03
0.18947	35.03
0.20613	35.04
0.22280	35.06
0.23947	35.05
0.25613	35.06
0.27280	35.06
0.28947	35.06
0.30613	35.06
0.32280	35.06
0.33947	35.05
0.35613	35.05
0.37280	35.04
0.38947	35.02
0.40613	35.01
0.42280	35.00
0.43947	34.99
0.45613	34.98
0.47280	34.97
0.48947	34.97
0.50613	34.97
0.52280	34.97
0.53947	34.98
0.55613	34.99
0.57280	34.99
0.58947	34.99
0.60613	34.99
0.62280	34.99
0.63947	34.98
0.65613	34.98
0.67280	34.99
0.68947	34.97
0.70613	34.96
0.72280	34.96
0.73947	34.96
0.75613	34.96
0.77280	34.96
0.78947	34.96
0.80613	34.97
0.82280	35.00
0.83947	35.01
0.85613	35.01
0.87280	35.01
0.88947	35.01
0.90613	35.01
0.92280	35.00
0.93947	35.01
0.95613	35.01
0.97280	35.00
0.98947	34.99
1.00613	34.99
1.02280	34.99
1.03947	35.00
1.05613	35.01
1.07280	34.99
1.08947	34.99
1.10613	35.00
1.12280	35.01
1.13947	35.02
1.15613	35.01
1.17280	35.01
1.18947	35.01
1.20613	35.01
1.22280	35.01
1.23947	35.01
1.25613	35.00
1.27280	35.00
1.28947	34.99
1.30613	34.99
1.32280	34.99
1.33947	34.99
1.35613	34.99
1.37280	34.98
1.38947	34.99
1.40613	34.99
1.42280	34.99
1.43947	34.99
1.45613	34.99
1.47280	34.99
1.48947	35.00
1.50613	35.02
1.52280	35.03
1.53947	35.03
1.55613	35.03
1.57280	35.02
1.58947	35.02
1.60613	35.08
1.62280	35.19
1.63947	35.37
1.65613	35.60
1.67280	35.91
1.68947	36.27
1.70613	36.62
1.72280	36.97
1.73947	37.31
1.75613	37.65
1.77280	37.96
1.78947	38.30
1.80613	38.64
1.82280	38.95
1.83947	39.30
1.85613	39.61
1.87280	39.95
1.88947	40.29
1.90613	40.61
1.92280	40.95
1.93947	41.27
1.95613	41.62
1.97280	41.91
1.98947	42.24
2.00613	42.56
2.02280	42.88
2.03947	43.22
2.05613	43.54
2.07280	43.87
2.08947	44.20
2.10613	44.52
2.12280	44.85
2.13947	45.19
2.15613	45.51
2.17280	45.86
2.18947	46.19
2.20613	46.51
2.22280	46.85
2.23947	47.17
2.25613	47.50
2.27280	47.82
2.28947	48.15
2.30613	48.47
2.32280	48.81
2.33947	49.15
2.35613	49.42
2.37280	49.59
2.38947	49.64
2.40613	49.64
2.42280	49.66
2.43947	49.66
2.45613	49.66
2.47280	49.68
2.48947	49.67
2.50613	49.68
2.52280	49.69
2.53947	49.72
2.55613	49.71
2.57280	49.77
2.58947	49.79
2.60613	49.80
2.62280	49.81
2.63947	49.81
2.65613	49.84
2.67280	49.84
2.68947	49.86
2.70613	49.87
2.72280	49.86
2.73947	49.85
2.75613	49.85
2.77280	49.86
2.78947	49.87
2.80613	49.87
2.82280	49.87
2.83947	49.86
2.85613	49.86
2.87280	49.87
2.88947	49.88
2.90613	49.88
2.92280	49.91
2.93947	49.93
2.95613	49.94
2.97280	49.96
2.98947	49.97
3.00613	49.98
3.02280	49.99
3.03947	50.00
3.05613	50.01
3.07280	50.01
3.08947	50.01
3.10613	50.03
3.12280	50.04
3.13947	50.05
3.15613	50.06
3.17280	50.07
3.18947	50.06
3.20613	50.07
3.22280	50.08
3.23947	50.08
3.25613	50.09
3.27280	50.09
3.28947	50.09
3.30613	50.08
3.32280	50.09
3.33947	50.09
3.35613	50.08
3.37280	50.09
3.38947	50.10
3.40613	50.11
3.42280	50.11
3.43947	50.11
3.45613	50.11
3.47280	50.10
3.48947	50.09
3.50613	50.06
3.52280	50.05
3.53947	50.03
3.55613	50.02
3.57280	50.02
3.58947	50.02
3.60613	50.02
3.62280	50.03
3.63947	50.03
3.65613	50.02
3.67280	50.02
3.68947	50.02
3.70613	50.02
3.72280	50.02
3.73947	50.01
3.75613	50.02
3.77280	50.02
3.78947	50.03
3.80613	50.03
3.82280	50.04
3.83947	50.04
3.85613	50.04
3.87280	50.04
3.88947	50.04
3.90613	50.05
3.92280	50.05
3.93947	50.04
3.95613	50.04
3.97280	50.04
3.98947	50.04

[Status Trace (Injection Unit Temperature)]
Interval(msec)	1000
# of Points	240
Start Time(min)	0.006
End Time(min)	3.989
Intensity Units	
Intensity Multiplier	1
R.Time (min)	Intensity
0.00613	99.98
0.02280	99.98
0.03947	99.98
0.05613	99.98
0.07280	99.98
0.08947	99.98
0.10613	99.98
0.12280	99.99
0.13947	99.98
0.15613	99.99
0.17280	99.98
0.18947	99.98
0.20613	99.98
0.22280	99.98
0.23947	99.99
0.25613	99.99
0.27280	99.98
0.28947	99.99
0.30613	99.98
0.32280	99.98
0.33947	99.98
0.35613	99.99
0.37280	99.98
0.38947	99.99
0.40613	99.99
0.42280	99.99
0.43947	99.99
0.45613	99.99
0.47280	99.98
0.48947	99.98
0.50613	99.98
0.52280	99.98
0.53947	99.98
0.55613	99.98
0.57280	99.98
0.58947	99.98
0.60613	99.98
0.62280	99.99
0.63947	99.99
0.65613	99.98
0.67280	99.99
0.68947	99.97
0.70613	99.98
0.72280	99.98
0.73947	99.98
0.75613	99.98
0.77280	99.98
0.78947	99.98
0.80613	99.98
0.82280	99.98
0.83947	99.98
0.85613	99.98
0.87280	99.98
0.88947	99.98
0.90613	99.98
0.92280	99.98
0.93947	99.98
0.95613	99.98
0.97280	99.98
0.98947	99.98
1.00613	99.98
1.02280	99.98
1.03947	99.98
1.05613	99.98
1.07280	99.98
1.08947	99.98
1.10613	99.98
1.12280	99.98
1.13947	99.98
1.15613	99.98
1.17280	99.98
1.18947	99.98
1.20613	99.98
1.22280	99.98
1.23947	99.99
1.25613	99.98
1.27280	99.98
1.28947	99.98
1.30613	99.98
1.32280	99.98
1.33947	99.98
1.35613	99.99
1.37280	99.98
1.38947	99.98
1.40613	99.98
1.42280	99.99
1.43947	99.98
1.45613	99.98
1.47280	99.98
1.48947	99.98
1.50613	99.98
1.52280	99.99
1.53947	99.99
1.55613	99.99
1.57280	99.99
1.58947	99.99
1.60613	99.99
1.62280	99.99
1.63947	99.99
1.65613	99.99
1.67280	99.99
1.68947	99.99
1.70613	99.99
1.72280	99.99
1.73947	99.99
1.75613	99.99
1.77280	99.99
1.78947	99.99
1.80613	99.99
1.82280	99.99
1.83947	99.98
1.85613	99.98
1.87280	99.99
1.88947	99.99
1.90613	99.98
1.92280	99.98
1.93947	99.98
1.95613	99.99
1.97280	99.98
1.98947	99.98
2.00613	99.98
2.02280	99.98
2.03947	99.98
2.05613	99.98
2.07280	99.97
2.08947	99.97
2.10613	99.97
2.12280	99.98
2.13947	99.98
2.15613	99.97
2.17280	99.98
2.18947	99.97
2.20613	99.97
2.22280	99.98
2.23947	99.97
2.25613	99.97
2.27280	99.97
2.28947	99.97
2.30613	99.97
2.32280	99.97
2.33947	99.97
2.35613	99.97
2.37280	99.97
2.38947	99.97
2.40613	99.97
2.42280	99.97
2.43947	99.97
2.45613	99.97
2.47280	99.97
2.48947	99.97
2.50613	99.97
2.52280	99.97
2.53947	99.97
2.55613	99.97
2.57280	99.97
2.58947	99.97
2.60613	99.97
2.62280	99.97
2.63947	99.98
2.65613	99.97
2.67280	99.98
2.68947	99.98
2.70613	99.98
2.72280	99.98
2.73947	99.99
2.75613	99.98
2.77280	99.99
2.78947	99.99
2.80613	99.99
2.82280	99.99
2.83947	100.00
2.85613	100.00
2.87280	100.00
2.88947	100.00
2.90613	100.00
2.92280	100.00
2.93947	100.01
2.95613	100.01
2.97280	100.01
2.98947	100.01
3.00613	100.01
3.02280	100.01
3.03947	100.01
3.05613	100.02
3.07280	100.02
3.08947	100.02
3.10613	100.01
3.12280	100.02
3.13947	100.02
3.15613	100.02
3.17280	100.03
3.18947	100.02
3.20613	100.02
3.22280	100.02
3.23947	100.02
3.25613	100.03
3.27280	100.03
3.28947	100.03
3.30613	100.03
3.32280	100.03
3.33947	100.03
3.35613	100.03
3.37280	100.03
3.38947	100.03
3.40613	100.03
3.42280	100.03
3.43947	100.03
3.45613	100.03
3.47280	100.03
3.48947	100.03
3.50613	100.04
3.52280	100.03
3.53947	100.04
3.55613	100.04
3.57280	100.04
3.58947	100.03
3.60613	100.04
3.62280	100.04
3.63947	100.03
3.65613	100.03
3.67280	100.04
3.68947	100.04
3.70613	100.03
3.72280	100.04
3.73947	100.04
3.75613	100.04
3.77280	100.04
3.78947	100.04
3.80613	100.04
3.82280	100.04
3.83947	100.04
3.85613	100.04
3.87280	100.04
3.88947	100.04
3.90613	100.04
3.92280	100.04
3.93947	100.04
3.95613	100.04
3.97280	100.04
3.98947	100.04

[Status Trace (Carrier Gas Pressure)]
Interval(msec)	1000
# of Points	240
Start Time(min)	0.006
End Time(min)	3.989
Intensity Units	
Intensity Multiplier	1
R.Time (min)	Intensity
0.00613	58.00
0.02280	55.64
0.03947	56.93
0.05613	59.02
0.07280	59.58
0.08947	58.10
0.10613	57.98
0.12280	58.01
0.13947	58.01
0.15613	58.00
0.17280	58.00
0.18947	58.00
0.20613	58.00
0.22280	58.00
0.23947	58.00
0.25613	58.00
0.27280	58.00
0.28947	58.00
0.30613	58.00
0.32280	58.00
0.33947	58.00
0.35613	58.00
0.37280	58.00
0.38947	58.00
0.40613	58.00
0.42280	58.00
0.43947	58.00
0.45613	58.00
0.47280	58.00
0.48947	58.00
0.50613	58.00
0.52280	58.00
0.53947	58.00
0.55613	58.00
0.57280	58.00
0.58947	58.00
0.60613	58.00
0.62280	58.00
0.63947	58.00
0.65613	58.00
0.67280	58.00
0.68947	58.00
0.70613	58.00
0.72280	58.00
0.73947	58.00
0.75613	58.00
0.77280	58.00
0.78947	58.00
0.80613	58.00
0.82280	58.00
0.83947	58.00
0.85613	58.00
0.87280	58.00
0.88947	58.00
0.90613	58.00
0.92280	58.00
0.93947	58.00
0.95613	58.00
0.97280	58.00
0.98947	58.00
1.00613	58.00
1.02280	58.00
1.03947	58.00
1.05613	58.00
1.07280	58.00
1.08947	58.00
1.10613	58.00
1.12280	58.00
1.13947	58.00
1.15613	58.00
1.17280	58.00
1.18947	58.00
1.20613	58.00
1.22280	58.00
1.23947	58.00
1.25613	58.00
1.27280	58.00
1.28947	58.00
1.30613	58.00
1.32280	58.00
1.33947	58.00
1.35613	58.00
1.37280	58.00
1.38947	58.00
1.40613	58.00
1.42280	58.00
1.43947	58.00
1.45613	58.00
1.47280	58.00
1.48947	58.00
1.50613	58.00
1.52280	58.00
1.53947	58.00
1.55613	58.00
1.57280	58.00
1.58947	58.00
1.60613	58.00
1.62280	58.00
1.63947	58.00
1.65613	58.00
1.67280	58.01
1.68947	58.01
1.70613	58.00
1.72280	58.00
1.73947	58.00
1.75613	58.00
1.77280	58.00
1.78947	58.00
1.80613	58.00
1.82280	58.00
1.83947	58.00
1.85613	58.00
1.87280	58.00
1.88947	58.00
1.90613	58.00
1.92280	58.00
1.93947	58.00
1.95613	58.00
1.97280	58.00
1.98947	58.00
2.00613	58.00
2.02280	58.00
2.03947	58.00
2.05613	58.00
2.07280	58.00
2.08947	58.00
2.10613	58.00
2.12280	58.00
2.13947	58.00
2.15613	58.00
2.17280	58.00
2.18947	58.00
2.20613	58.00
2.22280	58.00
2.23947	58.00
2.25613	58.00
2.27280	58.00
2.28947	58.00
2.30613	58.00
2.32280	58.00
2.33947	58.00
2.35613	58.00
2.37280	58.00
2.38947	57.99
2.40613	57.99
2.42280	58.00
2.43947	58.00
2.45613	58.00
2.47280	58.00
2.48947	58.00
2.50613	57.99
2.52280	57.99
2.53947	58.00
2.55613	58.00
2.57280	58.00
2.58947	58.00
2.60613	58.00
2.62280	58.00
2.63947	58.00
2.65613	58.00
2.67280	58.00
2.68947	58.00
2.70613	58.00
2.72280	58.00
2.73947	58.00
2.75613	58.00
2.77280	58.00
2.78947	58.00
2.80613	58.00
2.82280	58.00
2.83947	58.00
2.85613	58.00
2.87280	58.00
2.88947	58.00
2.90613	58.00
2.92280	58.00
2.93947	58.00
2.95613	58.00
2.97280	58.00
2.98947	58.00
3.00613	58.00
3.02280	58.00
3.03947	58.00
3.05613	58.00
3.07280	58.00
3.08947	58.00
3.10613	58.00
3.12280	58.00
3.13947	58.00
3.15613	58.00
3.17280	58.00
3.18947	58.00
3.20613	58.00
3.22280	58.00
3.23947	58.00
3.25613	58.00
3.27280	58.00
3.28947	58.00
3.30613	58.00
3.32280	58.00
3.33947	58.00
3.35613	58.00
3.37280	58.00
3.38947	58.00
3.40613	58.00
3.42280	58.00
3.43947	58.00
3.45613	58.00
3.47280	58.00
3.48947	58.00
3.50613	58.00
3.52280	58.00
3.53947	58.00
3.55613	58.00
3.57280	58.00
3.58947	58.00
3.60613	58.00
3.62280	58.00
3.63947	58.00
3.65613	58.00
3.67280	58.00
3.68947	58.00
3.70613	58.00
3.72280	58.00
3.73947	58.00
3.75613	58.00
3.77280	58.00
3.78947	58.00
3.80613	58.00
3.82280	58.00
3.83947	58.00
3.85613	58.00
3.87280	58.00
3.88947	58.00
3.90613	58.00
3.92280	58.00
3.93947	58.00
3.95613	58.00
3.97280	58.00
3.98947	58.00

[Status Trace (Carrier Gas Flow)]
Interval(msec)	1000
# of Points	240
Start Time(min)	0.006
End Time(min)	3.989
Intensity Units	
Intensity Multiplier	1
R.Time (min)	Intensity
0.00613	34.52
0.02280	34.54
0.03947	34.54
0.05613	34.55
0.07280	34.50
0.08947	34.52
0.10613	34.52
0.12280	34.52
0.13947	34.52
0.15613	34.52
0.17280	34.52
0.18947	34.51
0.20613	34.52
0.22280	34.52
0.23947	34.52
0.25613	34.52
0.27280	34.52
0.28947	34.52
0.30613	34.52
0.32280	34.52
0.33947	34.52
0.35613	34.52
0.37280	34.52
0.38947	34.52
0.40613	34.52
0.42280	34.52
0.43947	34.52
0.45613	34.52
0.47280	34.52
0.48947	34.52
0.50613	34.52
0.52280	34.52
0.53947	34.52
0.55613	34.52
0.57280	34.52
0.58947	34.52
0.60613	34.52
0.62280	34.52
0.63947	34.51
0.65613	34.51
0.67280	34.52
0.68947	34.52
0.70613	34.52
0.72280	34.52
0.73947	34.52
0.75613	34.52
0.77280	34.51
0.78947	34.52
0.80613	34.51
0.82280	34.52
0.83947	34.51
0.85613	34.52
0.87280	34.52
0.88947	34.52
0.90613	34.52
0.92280	34.52
0.93947	34.52
0.95613	34.52
0.97280	34.52
0.98947	34.52
1.00613	34.52
1.02280	34.52
1.03947	34.52
1.05613	34.52
1.07280	34.51
1.08947	34.51
1.10613	34.52
1.12280	34.52
1.13947	34.52
1.15613	34.52
1.17280	34.51
1.18947	34.52
1.20613	34.52
1.22280	34.52
1.23947	34.52
1.25613	34.52
1.27280	34.52
1.28947	34.52
1.30613	34.52
1.32280	34.52
1.33947	34.52
1.35613	34.52
1.37280	34.52
1.38947	34.52
1.40613	34.52
1.42280	34.52
1.43947	34.52
1.45613	34.52
1.47280	34.52
1.48947	34.52
1.50613	34.52
1.52280	34.51
1.53947	34.52
1.55613	34.52
1.57280	34.52
1.58947	34.52
1.60613	34.52
1.62280	34.52
1.63947	34.52
1.65613	34.51
1.67280	34.52
1.68947	34.52
1.70613	34.52
1.72280	34.52
1.73947	34.52
1.75613	34.53
1.77280	34.52
1.78947	34.51
1.80613	34.51
1.82280	34.52
1.83947	34.51
1.85613	34.52
1.87280	34.53
1.88947	34.52
1.90613	34.51
1.92280	34.51
1.93947	34.52
1.95613	34.52
1.97280	34.52
1.98947	34.51
2.00613	34.52
2.02280	34.53
2.03947	34.52
2.05613	34.51
2.07280	34.52
2.08947	34.52
2.10613	34.52
2.12280	34.51
2.13947	34.52
2.15613	34.51
2.17280	34.52
2.18947	34.52
2.20613	34.52
2.22280	34.51
2.23947	34.52
2.25613	34.52
2.27280	34.52
2.28947	34.52
2.30613	34.53
2.32280	34.52
2.33947	34.53
2.35613	34.52
2.37280	34.52
2.38947	34.52
2.40613	34.52
2.42280	34.52
2.43947	34.52
2.45613	34.52
2.47280	34.52
2.48947	34.52
2.50613	34.50
2.52280	34.52
2.53947	34.52
2.55613	34.52
2.57280	34.52
2.58947	34.52
2.60613	34.52
2.62280	34.52
2.63947	34.52
2.65613	34.52
2.67280	34.52
2.68947	34.52
2.70613	34.52
2.72280	34.52
2.73947	34.52
2.75613	34.52
2.77280	34.52
2.78947	34.52
2.80613	34.53
2.82280	34.51
2.83947	34.52
2.85613	34.52
2.87280	34.52
2.88947	34.52
2.90613	34.51
2.92280	34.52
2.93947	34.52
2.95613	34.52
2.97280	34.52
2.98947	34.52
3.00613	34.52
3.02280	34.52
3.03947	34.52
3.05613	34.52
3.07280	34.52
3.08947	34.52
3.10613	34.52
3.12280	34.52
3.13947	34.52
3.15613	34.52
3.17280	34.52
3.18947	34.52
3.20613	34.52
3.22280	34.53
3.23947	34.52
3.25613	34.52
3.27280	34.52
3.28947	34.52
3.30613	34.52
3.32280	34.51
3.33947	34.52
3.35613	34.52
3.37280	34.51
3.38947	34.52
3.40613	34.52
3.42280	34.52
3.43947	34.52
3.45613	34.51
3.47280	34.52
3.48947	34.52
3.50613	34.52
3.52280	34.52
3.53947	34.52
3.55613	34.52
3.57280	34.52
3.58947	34.52
3.60613	34.52
3.62280	34.52
3.63947	34.52
3.65613	34.51
3.67280	34.51
3.68947	34.52
3.70613	34.52
3.72280	34.52
3.73947	34.52
3.75613	34.51
3.77280	34.52
3.78947	34.52
3.80613	34.51
3.82280	34.51
3.83947	34.52
3.85613	34.52
3.87280	34.52
3.88947	34.52
3.90613	34.52
3.92280	34.52
3.93947	34.52
3.95613	34.51
3.97280	34.52
3.98947	34.52

[Status Trace (Column Flow)]
Interval(msec)	1000
# of Points	240
Start Time(min)	0.006
End Time(min)	3.989
Intensity Units	
Intensity Multiplier	1
R.Time (min)	Intensity
0.00613	5.53
0.02280	5.26
0.03947	5.41
0.05613	5.66
0.07280	5.72
0.08947	5.55
0.10613	5.53
0.12280	5.54
0.13947	5.54
0.15613	5.54
0.17280	5.54
0.18947	5.54
0.20613	5.54
0.22280	5.54
0.23947	5.54
0.25613	5.54
0.27280	5.54
0.28947	5.54
0.30613	5.54
0.32280	5.54
0.33947	5.54
0.35613	5.54
0.37280	5.54
0.38947	5.54
0.40613	5.54
0.42280	5.54
0.43947	5.54
0.45613	5.54
0.47280	5.54
0.48947	5.54
0.50613	5.54
0.52280	5.54
0.53947	5.54
0.55613	5.54
0.57280	5.54
0.58947	5.54
0.60613	5.54
0.62280	5.54
0.63947	5.54
0.65613	5.54
0.67280	5.54
0.68947	5.54
0.70613	5.54
0.72280	5.54
0.73947	5.54
0.75613	5.54
0.77280	5.54
0.78947	5.54
0.80613	5.54
0.82280	5.54
0.83947	5.54
0.85613	5.54
0.87280	5.54
0.88947	5.54
0.90613	5.54
0.92280	5.54
0.93947	5.54
0.95613	5.54
0.97280	5.54
0.98947	5.54
1.00613	5.54
1.02280	5.54
1.03947	5.54
1.05613	5.54
1.07280	5.54
1.08947	5.54
1.10613	5.54
1.12280	5.54
1.13947	5.54
1.15613	5.54
1.17280	5.54
1.18947	5.54
1.20613	5.54
1.22280	5.54
1.23947	5.54
1.25613	5.54
1.27280	5.54
1.28947	5.54
1.30613	5.54
1.32280	5.54
1.33947	5.54
1.35613	5.54
1.37280	5.54
1.38947	5.54
1.40613	5.54
1.42280	5.54
1.43947	5.54
1.45613	5.54
1.47280	5.54
1.48947	5.54
1.50613	5.54
1.52280	5.54
1.53947	5.54
1.55613	5.54
1.57280	5.54
1.58947	5.54
1.60613	5.53
1.62280	5.53
1.63947	5.53
1.65613	5.52
1.67280	5.51
1.68947	5.50
1.70613	5.49
1.72280	5.48
1.73947	5.46
1.75613	5.45
1.77280	5.44
1.78947	5.43
1.80613	5.42
1.82280	5.41
1.83947	5.40
1.85613	5.39
1.87280	5.38
1.88947	5.37
1.90613	5.36
1.92280	5.35
1.93947	5.34
1.95613	5.33
1.97280	5.32
1.98947	5.32
2.00613	5.31
2.02280	5.30
2.03947	5.29
2.05613	5.28
2.07280	5.27
2.08947	5.26
2.10613	5.25
2.12280	5.24
2.13947	5.23
2.15613	5.22
2.17280	5.21
2.18947	5.20
2.20613	5.19
2.22280	5.18
2.23947	5.17
2.25613	5.16
2.27280	5.15
2.28947	5.14
2.30613	5.14
2.32280	5.13
2.33947	5.12
2.35613	5.11
2.37280	5.10
2.38947	5.10
2.40613	5.10
2.42280	5.10
2.43947	5.10
2.45613	5.10
2.47280	5.10
2.48947	5.10
2.50613	5.10
2.52280	5.10
2.53947	5.10
2.55613	5.10
2.57280	5.10
2.58947	5.10
2.60613	5.10
2.62280	5.10
2.63947	5.10
2.65613	5.10
2.67280	5.10
2.68947	5.10
2.70613	5.10
2.72280	5.10
2.73947	5.10
2.75613	5.10
2.77280	5.10
2.78947	5.10
2.80613	5.10
2.82280	5.10
2.83947	5.10
2.85613	5.10
2.87280	5.10
2.88947	5.10
2.90613	5.10
2.92280	5.09
2.93947	5.09
2.95613	5.09
2.97280	5.09
2.98947	5.09
3.00613	5.09
3.02280	5.09
3.03947	5.09
3.05613	5.09
3.07280	5.09
3.08947	5.09
3.10613	5.09
3.12280	5.09
3.13947	5.09
3.15613	5.09
3.17280	5.09
3.18947	5.09
3.20613	5.09
3.22280	5.09
3.23947	5.09
3.25613	5.09
3.27280	5.09
3.28947	5.09
3.30613	5.09
3.32280	5.09
3.33947	5.09
3.35613	5.09
3.37280	5.09
3.38947	5.09
3.40613	5.09
3.42280	5.09
3.43947	5.09
3.45613	5.09
3.47280	5.09
3.48947	5.09
3.50613	5.09
3.52280	5.09
3.53947	5.09
3.55613	5.09
3.57280	5.09
3.58947	5.09
3.60613	5.09
3.62280	5.09
3.63947	5.09
3.65613	5.09
3.67280	5.09
3.68947	5.09
3.70613	5.09
3.72280	5.09
3.73947	5.09
3.75613	5.09
3.77280	5.09
3.78947	5.09
3.80613	5.09
3.82280	5.09
3.83947	5.09
3.85613	5.09
3.87280	5.09
3.88947	5.09
3.90613	5.09
3.92280	5.09
3.93947	5.09
3.95613	5.09
3.97280	5.09
3.98947	5.09

[Status Trace (Linear Velocity)]
Interval(msec)	1000
# of Points	240
Start Time(min)	0.006
End Time(min)	3.989
Intensity Units	
Intensity Multiplier	1
R.Time (min)	Intensity
0.00613	39.01
0.02280	37.47
0.03947	38.31
0.05613	39.68
0.07280	40.05
0.08947	39.08
0.10613	39.00
0.12280	39.02
0.13947	39.02
0.15613	39.02
0.17280	39.02
0.18947	39.02
0.20613	39.02
0.22280	39.02
0.23947	39.02
0.25613	39.02
0.27280	39.02
0.28947	39.01
0.30613	39.02
0.32280	39.02
0.33947	39.02
0.35613	39.01
0.37280	39.02
0.38947	39.02
0.40613	39.02
0.42280	39.02
0.43947	39.02
0.45613	39.02
0.47280	39.02
0.48947	39.02
0.50613	39.02
0.52280	39.02
0.53947	39.02
0.55613	39.02
0.57280	39.02
0.58947	39.02
0.60613	39.02
0.62280	39.02
0.63947	39.02
0.65613	39.02
0.67280	39.02
0.68947	39.02
0.70613	39.02
0.72280	39.02
0.73947	39.02
0.75613	39.02
0.77280	39.02
0.78947	39.02
0.80613	39.02
0.82280	39.02
0.83947	39.02
0.85613	39.02
0.87280	39.02
0.88947	39.02
0.90613	39.02
0.92280	39.02
0.93947	39.02
0.95613	39.02
0.97280	39.02
0.98947	39.02
1.00613	39.02
1.02280	39.02
1.03947	39.02
1.05613	39.02
1.07280	39.02
1.08947	39.02
1.10613	39.02
1.12280	39.02
1.13947	39.02
1.15613	39.02
1.17280	39.02
1.18947	39.02
1.20613	39.02
1.22280	39.02
1.23947	39.02
1.25613	39.02
1.27280	39.02
1.28947	39.02
1.30613	39.02
1.32280	39.02
1.33947	39.02
1.35613	39.02
1.37280	39.02
1.38947	39.02
1.40613	39.02
1.42280	39.02
1.43947	39.02
1.45613	39.02
1.47280	39.02
1.48947	39.02
1.50613	39.02
1.52280	39.02
1.53947	39.02
1.55613	39.02
1.57280	39.02
1.58947	39.02
1.60613	39.01
1.62280	39.00
1.63947	38.99
1.65613	38.96
1.67280	38.94
1.68947	38.90
1.70613	38.87
1.72280	38.83
1.73947	38.80
1.75613	38.77
1.77280	38.74
1.78947	38.71
1.80613	38.67
1.82280	38.64
1.83947	38.61
1.85613	38.58
1.87280	38.55
1.88947	38.52
1.90613	38.49
1.92280	38.46
1.93947	38.43
1.95613	38.40
1.97280	38.37
1.98947	38.34
2.00613	38.31
2.02280	38.28
2.03947	38.25
2.05613	38.22
2.07280	38.19
2.08947	38.16
2.10613	38.13
2.12280	38.10
2.13947	38.07
2.15613	38.04
2.17280	38.01
2.18947	37.98
2.20613	37.95
2.22280	37.92
2.23947	37.89
2.25613	37.86
2.27280	37.83
2.28947	37.80
2.30613	37.77
2.32280	37.74
2.33947	37.71
2.35613	37.69
2.37280	37.67
2.38947	37.66
2.40613	37.66
2.42280	37.67
2.43947	37.67
2.45613	37.67
2.47280	37.66
2.48947	37.66
2.50613	37.66
2.52280	37.65
2.53947	37.66
2.55613	37.66
2.57280	37.66
2.58947	37.65
2.60613	37.65
2.62280	37.65
2.63947	37.65
2.65613	37.65
2.67280	37.65
2.68947	37.65
2.70613	37.65
2.72280	37.65
2.73947	37.65
2.75613	37.65
2.77280	37.65
2.78947	37.65
2.80613	37.65
2.82280	37.65
2.83947	37.65
2.85613	37.65
2.87280	37.65
2.88947	37.65
2.90613	37.65
2.92280	37.64
2.93947	37.64
2.95613	37.64
2.97280	37.64
2.98947	37.64
3.00613	37.64
3.02280	37.64
3.03947	37.64
3.05613	37.64
3.07280	37.63
3.08947	37.63
3.10613	37.63
3.12280	37.63
3.13947	37.63
3.15613	37.63
3.17280	37.63
3.18947	37.63
3.20613	37.63
3.22280	37.63
3.23947	37.63
3.25613	37.63
3.27280	37.63
3.28947	37.63
3.30613	37.63
3.32280	37.63
3.33947	37.63
3.35613	37.63
3.37280	37.63
3.38947	37.63
3.40613	37.63
3.42280	37.63
3.43947	37.63
3.45613	37.63
3.47280	37.63
3.48947	37.63
3.50613	37.63
3.52280	37.63
3.53947	37.63
3.55613	37.63
3.57280	37.63
3.58947	37.63
3.60613	37.63
3.62280	37.63
3.63947	37.63
3.65613	37.63
3.67280	37.63
3.68947	37.63
3.70613	37.63
3.72280	37.63
3.73947	37.63
3.75613	37.63
3.77280	37.63
3.78947	37.63
3.80613	37.63
3.82280	37.63
3.83947	37.63
3.85613	37.63
3.87280	37.63
3.88947	37.63
3.90613	37.63
3.92280	37.63
3.93947	37.63
3.95613	37.63
3.97280	37.63
3.98947	37.63

