[Header]
Application Name	LabSolutions
Version	5.110
Data File Name	C:\Users\User\Desktop\GC Analyses\Jack\Nachusa Grasslands Sampling\T3 Timepoint July 12th\T3_07122022_080.gcd
Output Date	3/14/2023
Output Time	3:43:35 PM

[File Information]
Type	Data File
Generated	3/13/2023 11:26:51 PM
Generated by	System Administrator
Modified	3/13/2023 11:33:27 PM
Modified by	System Administrator

[Sample Information]
Operator Name	System Administrator
Acquired	3/13/2023 11:29:26 PM
Sample Type	0:Unknown
Level	0
Sample Name	080
Sample ID	080
ISTD Amount1	1
ISTD Amount2	1
ISTD Amount3	1
ISTD Amount4	1
ISTD Amount5	1
ISTD Amount6	1
ISTD Amount7	1
ISTD Amount8	1
ISTD Amount9	1
ISTD Amount10	1
ISTD Amount11	1
ISTD Amount12	1
ISTD Amount13	1
ISTD Amount14	1
ISTD Amount15	1
ISTD Amount16	1
ISTD Amount17	1
ISTD Amount18	1
ISTD Amount19	1
ISTD Amount20	1
ISTD Amount21	1
ISTD Amount22	1
ISTD Amount23	1
ISTD Amount24	1
ISTD Amount25	1
ISTD Amount26	1
ISTD Amount27	1
ISTD Amount28	1
ISTD Amount29	1
ISTD Amount30	1
ISTD Amount31	1
ISTD Amount32	1
Sample Amount	1
Dilution Factor	1
Vial#	79
Injection Volume	1
Injection Count	1
Bar Code	

[Original Files]
Data File	C:\Users\User\Desktop\GC Analyses\Jack\Nachusa Grasslands Sampling\T3 Timepoint July 12th\T3_07122022_080.gcd
Method File	C:\LabSolutions\Data\GHG_4min_2022\ghg3_togas_w_acet_4 min_new_int.gcm
Batch File	C:\LabSolutions\Data\AutoSamplerTesting\T3_07122022.gcb
Report Format File	c:\LabSolutions\System\DEFAULT.lsr

[File Description]


[Configuration]
Instrument Name	C0B7VH3-Instrument1
Instrument #	1
Line #	1
# of Detectors	3
Detector ID	DET#1	DET#2	DET#3
Detector Name	FID	PTCD	ECD
# of Channels	1	1	1

[Peak Table(Ch1)]
# of Peaks	3
Peak#	R.Time	I.Time	F.Time	Area	Height	A/H	Conc.	Mark	ID#	Name	k'	Plate #	Plate Ht.	Tailing	Resolution	Sep.Factor	Area Ratio	Height Ratio	Conc. %	Norm Conc.
1	1.476	1.439	1.534	28263	13977	2.022	199.535	   	1	CO	0.000	9716	15.439	1.271	0.000	0.000	0	0	14.529	14.529
2	1.571	1.538	1.611	3748	1973	1.900	72.478	   	2	CH4	0.065	12069	12.428	1.108	1.628	0.000	0	0	5.277	5.277
3	1.996	1.941	2.418	4388294	2107255	2.082	1101.343	   	3	CO2	0.353	17202	8.720	1.320	7.204	5.462	0	0	80.194	80.194

[Peak Table(Ch2)]
# of Peaks	0

[Peak Table(Ch3)]
# of Peaks	7
Peak#	R.Time	I.Time	F.Time	Area	Height	A/H	Conc.	Mark	ID#	Name	k'	Plate #	Plate Ht.	Tailing	Resolution	Sep.Factor	Area Ratio	Height Ratio	Conc. %	Norm Conc.
1	1.281	1.065	1.380	189	20	9.603	0.000	   			0.000	2678	56.022	0.722	0.000	0.000	0	0	0.000	0.000
2	2.462	2.330	2.510	2336	723	3.230	0.000	   			0.921	10216	14.683	0.000	12.018	0.000	0	0	0.000	0.000
3	2.528	2.510	2.583	1147	375	3.059	0.000	 V 			0.973	6496	23.093	0.000	0.592	1.056	0	0	0.000	0.000
4	2.598	2.583	2.675	524	170	3.092	0.000	 V 			1.027	1835	81.724	0.000	0.379	1.056	0	0	0.000	0.000
5	2.880	2.700	3.137	20696	4938	4.191	0.529	S  	1	N2O	1.248	12743	11.771	1.567	1.639	1.214	0	0	100.000	100.000
6	3.122	3.111	3.133	35	45	0.778	0.000	T  	2	SF6	1.437	295229	0.508	1.006	3.871	1.151	0	0	0.000	0.000
7	3.338	3.140	3.995	22154	752	29.453	0.000	   	2	SF6	1.605	219	684.575	2.112	0.468	1.118	0	0	0.000	0.000

[Compound Results(Ch1)]
# of IDs	6
ID#	Name	R.Time	Area	Height	Conc.	Curve	3rd	2nd	1st	Constant	Area Ratio	Height Ratio	Conc. %	Norm Conc.
1	CO	1.476	28263	13977	199.535	Linear	0.000000e+00	0.000000e+00	1.416423e+002	0.000000e+00	0	0	14.529	14.529
2	CH4	1.571	3748	1973	72.478	Linear	0.000000e+00	0.000000e+00	5.171738e+001	0.000000e+00	0	0	5.277	5.277
3	CO2	1.996	4388294	2107255	1101.343	Linear	0.000000e+00	0.000000e+00	3.984494e+003	0.000000e+00	0	0	80.194	80.194
4	Ethylene	0.000	0	0	0.000	Linear	0.000000e+00	0.000000e+00	0.000000e+00	0.000000e+00	0	0	0.000	0.000
5	Acetylene	0.000	0	0	0.000	Linear	0.000000e+00	0.000000e+00	0.000000e+00	0.000000e+00	0	0	0.000	0.000
6	Ethane	0.000	0	0	0.000	Linear	0.000000e+00	0.000000e+00	0.000000e+00	0.000000e+00	0	0	0.000	0.000

[Compound Results(Ch2)]
# of IDs	5
ID#	Name	R.Time	Area	Height	Conc.	Curve	3rd	2nd	1st	Constant	Area Ratio	Height Ratio	Conc. %	Norm Conc.
1	Hydrogen	0.000	0	0	0.000	Linear	0.000000e+00	0.000000e+00	0.000000e+00	0.000000e+00	0	0	0.000	0.000
2	Oxygen	0.000	0	0	0.000	Linear	0.000000e+00	0.000000e+00	0.000000e+00	0.000000e+00	0	0	0.000	0.000
3	Nitrogen	0.000	0	0	0.000	Linear	0.000000e+00	0.000000e+00	0.000000e+00	0.000000e+00	0	0	0.000	0.000
4	Methane	0.000	0	0	0.000	Linear	0.000000e+00	0.000000e+00	0.000000e+00	0.000000e+00	0	0	0.000	0.000
5	Carbon Monoxide	0.000	0	0	0.000	Linear	0.000000e+00	0.000000e+00	0.000000e+00	0.000000e+00	0	0	0.000	0.000

[Compound Results(Ch3)]
# of IDs	2
ID#	Name	R.Time	Area	Height	Conc.	Curve	3rd	2nd	1st	Constant	Area Ratio	Height Ratio	Conc. %	Norm Conc.
1	N2O	2.880	20696	4938	0.529	Linear	0.000000e+00	0.000000e+00	3.915173e+004	0.000000e+00	0	0	100.000	100.000
2	SF6	3.338	22188	797	0.000	Linear	0.000000e+00	0.000000e+00	0.000000e+00	0.000000e+00	0	0	0.000	0.000

[Group Results(Ch1)]
# of Groups	0

[Group Results(Ch2)]
# of Groups	0

[Group Results(Ch3)]
# of Groups	0

[Chromatogram (Ch1)]
Interval(msec)	220
# of Points	1091
Start Time(min)	0.002
End Time(min)	3.998
R.Time (min)	Intensity
0.00167	6
0.00533	4
0.00900	2
0.01267	4
0.01633	6
0.02000	6
0.02367	8
0.02733	11
0.03100	17
0.03467	25
0.03833	29
0.04200	27
0.04567	20
0.04933	10
0.05300	0
0.05667	-6
0.06033	-8
0.06400	-15
0.06767	-24
0.07133	-26
0.07500	-20
0.07867	-8
0.08233	2
0.08600	9
0.08967	16
0.09333	18
0.09700	17
0.10067	17
0.10433	12
0.10800	6
0.11167	6
0.11533	10
0.11900	15
0.12267	20
0.12633	26
0.13000	25
0.13367	19
0.13733	9
0.14100	1
0.14467	-4
0.14833	-10
0.15200	-17
0.15567	-18
0.15933	-16
0.16300	-15
0.16667	-16
0.17033	-18
0.17400	-20
0.17767	-16
0.18133	-9
0.18500	1
0.18867	8
0.19233	12
0.19600	14
0.19967	14
0.20333	14
0.20700	17
0.21067	15
0.21433	14
0.21800	17
0.22167	22
0.22533	29
0.22900	33
0.23267	34
0.23633	33
0.24000	33
0.24367	32
0.24733	29
0.25100	22
0.25467	16
0.25833	17
0.26200	26
0.26567	35
0.26933	42
0.27300	48
0.27667	54
0.28033	56
0.28400	56
0.28767	52
0.29133	50
0.29500	55
0.29867	64
0.30233	74
0.30600	81
0.30967	87
0.31333	91
0.31700	97
0.32067	105
0.32433	108
0.32800	107
0.33167	106
0.33533	108
0.33900	110
0.34267	111
0.34633	112
0.35000	115
0.35367	124
0.35733	135
0.36100	145
0.36467	152
0.36833	157
0.37200	161
0.37567	161
0.37933	154
0.38300	140
0.38667	126
0.39033	114
0.39400	108
0.39767	107
0.40133	105
0.40500	101
0.40867	89
0.41233	76
0.41600	65
0.41967	58
0.42333	58
0.42700	62
0.43067	62
0.43433	57
0.43800	48
0.44167	44
0.44533	44
0.44900	43
0.45267	43
0.45633	44
0.46000	49
0.46367	53
0.46733	51
0.47100	47
0.47467	45
0.47833	43
0.48200	38
0.48567	33
0.48933	32
0.49300	33
0.49667	29
0.50033	20
0.50400	16
0.50767	18
0.51133	20
0.51500	22
0.51867	25
0.52233	22
0.52600	21
0.52967	23
0.53333	26
0.53700	27
0.54067	28
0.54433	29
0.54800	34
0.55167	42
0.55533	43
0.55900	35
0.56267	24
0.56633	19
0.57000	18
0.57367	18
0.57733	12
0.58100	6
0.58467	5
0.58833	8
0.59200	13
0.59567	15
0.59933	12
0.60300	6
0.60667	-0
0.61033	-1
0.61400	2
0.61767	6
0.62133	9
0.62500	11
0.62867	13
0.63233	16
0.63600	21
0.63967	24
0.64333	24
0.64700	21
0.65067	15
0.65433	11
0.65800	10
0.66167	10
0.66533	7
0.66900	3
0.67267	-0
0.67633	2
0.68000	7
0.68367	9
0.68733	9
0.69100	10
0.69467	15
0.69833	18
0.70200	16
0.70567	10
0.70933	5
0.71300	-1
0.71667	-7
0.72033	-8
0.72400	2
0.72767	13
0.73133	18
0.73500	19
0.73867	15
0.74233	10
0.74600	7
0.74967	6
0.75333	6
0.75700	7
0.76067	4
0.76433	-3
0.76800	-10
0.77167	-15
0.77533	-13
0.77900	-5
0.78267	-0
0.78633	-4
0.79000	-7
0.79367	-5
0.79733	-1
0.80100	4
0.80467	12
0.80833	17
0.81200	17
0.81567	17
0.81933	16
0.82300	14
0.82667	10
0.83033	9
0.83400	9
0.83767	13
0.84133	21
0.84500	26
0.84867	22
0.85233	14
0.85600	10
0.85967	11
0.86333	14
0.86700	11
0.87067	6
0.87433	5
0.87800	5
0.88167	-2
0.88533	-12
0.88900	-19
0.89267	-19
0.89633	-12
0.90000	-3
0.90367	5
0.90733	6
0.91100	2
0.91467	1
0.91833	4
0.92200	3
0.92567	-1
0.92933	-3
0.93300	-2
0.93667	-1
0.94033	-2
0.94400	-5
0.94767	0
0.95133	6
0.95500	5
0.95867	4
0.96233	7
0.96600	8
0.96967	6
0.97333	-0
0.97700	-5
0.98067	-8
0.98433	-5
0.98800	2
0.99167	9
0.99533	15
0.99900	16
1.00267	17
1.00633	17
1.01000	16
1.01367	12
1.01733	7
1.02100	1
1.02467	1
1.02833	4
1.03200	2
1.03567	-3
1.03933	-10
1.04300	-15
1.04667	-14
1.05033	-11
1.05400	-8
1.05767	-5
1.06133	-3
1.06500	-4
1.06867	-6
1.07233	-5
1.07600	-2
1.07967	3
1.08333	5
1.08700	3
1.09067	-5
1.09433	-5
1.09800	2
1.10167	11
1.10533	18
1.10900	16
1.11267	10
1.11633	4
1.12000	-2
1.12367	-7
1.12733	-5
1.13100	5
1.13467	21
1.13833	38
1.14200	50
1.14567	55
1.14933	53
1.15300	48
1.15667	43
1.16033	35
1.16400	31
1.16767	33
1.17133	41
1.17500	48
1.17867	52
1.18233	56
1.18600	55
1.18967	46
1.19333	31
1.19700	19
1.20067	17
1.20433	21
1.20800	24
1.21167	24
1.21533	27
1.21900	31
1.22267	37
1.22633	43
1.23000	46
1.23367	46
1.23733	42
1.24100	43
1.24467	48
1.24833	51
1.25200	52
1.25567	53
1.25933	54
1.26300	53
1.26667	54
1.27033	56
1.27400	57
1.27767	52
1.28133	41
1.28500	32
1.28867	29
1.29233	37
1.29600	49
1.29967	54
1.30333	50
1.30700	44
1.31067	42
1.31433	41
1.31800	41
1.32167	43
1.32533	44
1.32900	43
1.33267	42
1.33633	36
1.34000	31
1.34367	34
1.34733	46
1.35100	55
1.35467	60
1.35833	57
1.36200	50
1.36567	41
1.36933	31
1.37300	23
1.37667	20
1.38033	21
1.38400	25
1.38767	29
1.39133	30
1.39500	35
1.39867	38
1.40233	42
1.40600	53
1.40967	62
1.41333	61
1.41700	52
1.42067	38
1.42433	28
1.42800	24
1.43167	18
1.43533	12
1.43900	16
1.44267	59
1.44633	214
1.45000	665
1.45367	1792
1.45733	3868
1.46100	6577
1.46467	9290
1.46833	11558
1.47200	13165
1.47567	13983
1.47933	13879
1.48300	12824
1.48667	11012
1.49033	8828
1.49400	6672
1.49767	4808
1.50133	3343
1.50500	2258
1.50867	1487
1.51233	955
1.51600	598
1.51967	359
1.52333	201
1.52700	99
1.53067	33
1.53433	-12
1.53800	-33
1.54167	-8
1.54533	115
1.54900	374
1.55267	740
1.55633	1133
1.56000	1482
1.56367	1751
1.56733	1920
1.57100	1958
1.57467	1841
1.57833	1588
1.58200	1262
1.58567	933
1.58933	654
1.59300	442
1.59667	287
1.60033	176
1.60400	99
1.60767	47
1.61133	7
1.61500	-20
1.61867	-34
1.62233	-35
1.62600	-29
1.62967	-33
1.63333	-46
1.63700	-60
1.64067	-69
1.64433	-72
1.64800	-72
1.65167	-69
1.65533	-65
1.65900	-61
1.66267	-54
1.66633	-47
1.67000	-43
1.67367	-43
1.67733	-48
1.68100	-50
1.68467	-45
1.68833	-35
1.69200	-27
1.69567	-23
1.69933	-28
1.70300	-34
1.70667	-39
1.71033	-39
1.71400	-36
1.71767	-28
1.72133	-16
1.72500	-6
1.72867	-3
1.73233	-5
1.73600	-7
1.73967	-5
1.74333	-3
1.74700	-2
1.75067	-4
1.75433	-10
1.75800	-13
1.76167	-19
1.76533	-16
1.76900	-4
1.77267	1
1.77633	2
1.78000	9
1.78367	13
1.78733	11
1.79100	5
1.79467	-5
1.79833	-12
1.80200	-8
1.80567	-4
1.80933	-6
1.81300	-9
1.81667	-11
1.82033	-10
1.82400	-7
1.82767	-4
1.83133	3
1.83500	16
1.83867	22
1.84233	17
1.84600	5
1.84967	-9
1.85333	-16
1.85700	-16
1.86067	-10
1.86433	-8
1.86800	-12
1.87167	-18
1.87533	-19
1.87900	-6
1.88267	4
1.88633	8
1.89000	9
1.89367	13
1.89733	19
1.90100	27
1.90467	33
1.90833	35
1.91200	31
1.91567	25
1.91933	22
1.92300	23
1.92667	24
1.93033	25
1.93400	25
1.93767	33
1.94133	43
1.94500	53
1.94867	61
1.95233	85
1.95600	269
1.95967	1517
1.96333	8031
1.96700	33671
1.97067	110391
1.97433	284004
1.97800	581367
1.98167	975271
1.98533	1392507
1.98900	1753416
1.99267	2001600
1.99633	2107354
2.00000	2066235
2.00367	1897213
2.00733	1637929
2.01100	1335807
2.01467	1035612
2.01833	769528
2.02200	553317
2.02567	388776
2.02933	269422
2.03300	185711
2.03667	128300
2.04033	89436
2.04400	63284
2.04767	45677
2.05133	33750
2.05500	25584
2.05867	19917
2.06233	15911
2.06600	13017
2.06967	10881
2.07333	9270
2.07700	8027
2.08067	7042
2.08433	6242
2.08800	5587
2.09167	5045
2.09533	4592
2.09900	4211
2.10267	3884
2.10633	3600
2.11000	3356
2.11367	3142
2.11733	2947
2.12100	2772
2.12467	2615
2.12833	2472
2.13200	2341
2.13567	2220
2.13933	2112
2.14300	2019
2.14667	1938
2.15033	1862
2.15400	1789
2.15767	1721
2.16133	1656
2.16500	1593
2.16867	1535
2.17233	1480
2.17600	1431
2.17967	1392
2.18333	1358
2.18700	1324
2.19067	1290
2.19433	1259
2.19800	1230
2.20167	1196
2.20533	1157
2.20900	1112
2.21267	1063
2.21633	1020
2.22000	988
2.22367	963
2.22733	941
2.23100	925
2.23467	916
2.23833	904
2.24200	891
2.24567	877
2.24933	862
2.25300	847
2.25667	828
2.26033	805
2.26400	786
2.26767	772
2.27133	761
2.27500	752
2.27867	742
2.28233	732
2.28600	723
2.28967	716
2.29333	707
2.29700	698
2.30067	693
2.30433	688
2.30800	682
2.31167	671
2.31533	658
2.31900	645
2.32267	631
2.32633	616
2.33000	603
2.33367	595
2.33733	590
2.34100	586
2.34467	579
2.34833	571
2.35200	568
2.35567	570
2.35933	573
2.36300	570
2.36667	566
2.37033	561
2.37400	559
2.37767	560
2.38133	561
2.38500	562
2.38867	559
2.39233	551
2.39600	541
2.39967	535
2.40333	532
2.40700	532
2.41067	532
2.41433	531
2.41800	529
2.42167	525
2.42533	522
2.42900	528
2.43267	536
2.43633	538
2.44000	530
2.44367	520
2.44733	509
2.45100	500
2.45467	490
2.45833	483
2.46200	479
2.46567	476
2.46933	472
2.47300	468
2.47667	464
2.48033	461
2.48400	459
2.48767	462
2.49133	465
2.49500	461
2.49867	458
2.50233	455
2.50600	451
2.50967	449
2.51333	451
2.51700	454
2.52067	455
2.52433	456
2.52800	458
2.53167	461
2.53533	472
2.53900	487
2.54267	492
2.54633	490
2.55000	482
2.55367	470
2.55733	457
2.56100	440
2.56467	425
2.56833	410
2.57200	397
2.57567	391
2.57933	393
2.58300	401
2.58667	409
2.59033	413
2.59400	417
2.59767	422
2.60133	422
2.60500	418
2.60867	411
2.61233	408
2.61600	415
2.61967	433
2.62333	452
2.62700	466
2.63067	469
2.63433	461
2.63800	446
2.64167	431
2.64533	420
2.64900	409
2.65267	396
2.65633	384
2.66000	380
2.66367	380
2.66733	383
2.67100	388
2.67467	392
2.67833	399
2.68200	410
2.68567	423
2.68933	433
2.69300	432
2.69667	421
2.70033	411
2.70400	407
2.70767	404
2.71133	397
2.71500	386
2.71867	381
2.72233	385
2.72600	392
2.72967	399
2.73333	398
2.73700	395
2.74067	388
2.74433	382
2.74800	384
2.75167	393
2.75533	404
2.75900	410
2.76267	409
2.76633	410
2.77000	412
2.77367	411
2.77733	410
2.78100	411
2.78467	417
2.78833	423
2.79200	429
2.79567	434
2.79933	434
2.80300	433
2.80667	433
2.81033	430
2.81400	431
2.81767	439
2.82133	440
2.82500	433
2.82867	430
2.83233	432
2.83600	433
2.83967	432
2.84333	425
2.84700	419
2.85067	417
2.85433	418
2.85800	421
2.86167	427
2.86533	432
2.86900	434
2.87267	436
2.87633	437
2.88000	435
2.88367	432
2.88733	427
2.89100	421
2.89467	413
2.89833	405
2.90200	394
2.90567	385
2.90933	384
2.91300	393
2.91667	404
2.92033	412
2.92400	413
2.92767	408
2.93133	406
2.93500	410
2.93867	416
2.94233	416
2.94600	412
2.94967	408
2.95333	410
2.95700	412
2.96067	416
2.96433	420
2.96800	425
2.97167	429
2.97533	429
2.97900	431
2.98267	432
2.98633	433
2.99000	432
2.99367	429
2.99733	429
3.00100	434
3.00467	444
3.00833	455
3.01200	466
3.01567	467
3.01933	456
3.02300	444
3.02667	435
3.03033	428
3.03400	424
3.03767	418
3.04133	414
3.04500	413
3.04867	411
3.05233	410
3.05600	410
3.05967	411
3.06333	412
3.06700	411
3.07067	406
3.07433	402
3.07800	401
3.08167	403
3.08533	406
3.08900	408
3.09267	404
3.09633	401
3.10000	399
3.10367	398
3.10733	397
3.11100	399
3.11467	404
3.11833	415
3.12200	426
3.12567	429
3.12933	420
3.13300	404
3.13667	387
3.14033	377
3.14400	377
3.14767	380
3.15133	384
3.15500	388
3.15867	391
3.16233	395
3.16600	401
3.16967	406
3.17333	408
3.17700	407
3.18067	407
3.18433	409
3.18800	403
3.19167	394
3.19533	386
3.19900	382
3.20267	381
3.20633	381
3.21000	382
3.21367	384
3.21733	385
3.22100	382
3.22467	379
3.22833	380
3.23200	383
3.23567	385
3.23933	386
3.24300	389
3.24667	392
3.25033	394
3.25400	391
3.25767	386
3.26133	375
3.26500	365
3.26867	361
3.27233	360
3.27600	362
3.27967	369
3.28333	376
3.28700	380
3.29067	378
3.29433	376
3.29800	376
3.30167	372
3.30533	368
3.30900	365
3.31267	363
3.31633	363
3.32000	365
3.32367	367
3.32733	367
3.33100	366
3.33467	363
3.33833	361
3.34200	360
3.34567	363
3.34933	368
3.35300	370
3.35667	371
3.36033	367
3.36400	357
3.36767	349
3.37133	348
3.37500	349
3.37867	349
3.38233	347
3.38600	345
3.38967	349
3.39333	362
3.39700	379
3.40067	391
3.40433	393
3.40800	383
3.41167	370
3.41533	355
3.41900	344
3.42267	341
3.42633	347
3.43000	357
3.43367	363
3.43733	362
3.44100	352
3.44467	337
3.44833	322
3.45200	313
3.45567	307
3.45933	306
3.46300	309
3.46667	315
3.47033	322
3.47400	329
3.47767	334
3.48133	339
3.48500	339
3.48867	336
3.49233	331
3.49600	325
3.49967	318
3.50333	313
3.50700	313
3.51067	311
3.51433	310
3.51800	314
3.52167	321
3.52533	328
3.52900	332
3.53267	337
3.53633	340
3.54000	341
3.54367	339
3.54733	335
3.55100	336
3.55467	338
3.55833	338
3.56200	334
3.56567	330
3.56933	324
3.57300	319
3.57667	316
3.58033	314
3.58400	312
3.58767	312
3.59133	315
3.59500	318
3.59867	320
3.60233	322
3.60600	323
3.60967	321
3.61333	318
3.61700	318
3.62067	320
3.62433	318
3.62800	316
3.63167	316
3.63533	318
3.63900	317
3.64267	313
3.64633	307
3.65000	303
3.65367	297
3.65733	292
3.66100	286
3.66467	284
3.66833	284
3.67200	284
3.67567	281
3.67933	276
3.68300	275
3.68667	279
3.69033	280
3.69400	280
3.69767	282
3.70133	287
3.70500	298
3.70867	310
3.71233	314
3.71600	309
3.71967	301
3.72333	294
3.72700	290
3.73067	288
3.73433	289
3.73800	294
3.74167	300
3.74533	300
3.74900	293
3.75267	290
3.75633	291
3.76000	291
3.76367	285
3.76733	279
3.77100	277
3.77467	283
3.77833	290
3.78200	294
3.78567	295
3.78933	295
3.79300	291
3.79667	282
3.80033	275
3.80400	271
3.80767	269
3.81133	272
3.81500	282
3.81867	295
3.82233	311
3.82600	321
3.82967	321
3.83333	310
3.83700	295
3.84067	282
3.84433	270
3.84800	256
3.85167	247
3.85533	242
3.85900	241
3.86267	245
3.86633	250
3.87000	256
3.87367	266
3.87733	274
3.88100	275
3.88467	275
3.88833	271
3.89200	261
3.89567	249
3.89933	238
3.90300	232
3.90667	236
3.91033	245
3.91400	250
3.91767	251
3.92133	249
3.92500	250
3.92867	254
3.93233	257
3.93600	257
3.93967	258
3.94333	257
3.94700	254
3.95067	253
3.95433	256
3.95800	260
3.96167	261
3.96533	263
3.96900	264
3.97267	256
3.97633	246
3.98000	241
3.98367	237
3.98733	234
3.99100	229
3.99467	224
3.99833	224

[Chromatogram (Ch2)]
Interval(msec)	220
# of Points	1091
Start Time(min)	0.002
End Time(min)	3.998
R.Time (min)	Intensity
0.00167	-1
0.00533	-2
0.00900	-3
0.01267	-3
0.01633	-3
0.02000	-4
0.02367	-4
0.02733	-4
0.03100	-4
0.03467	-4
0.03833	-4
0.04200	-4
0.04567	-4
0.04933	-4
0.05300	-4
0.05667	-4
0.06033	-4
0.06400	-5
0.06767	-5
0.07133	-5
0.07500	-5
0.07867	-5
0.08233	-5
0.08600	-5
0.08967	-4
0.09333	-4
0.09700	-4
0.10067	-4
0.10433	-3
0.10800	-3
0.11167	-4
0.11533	-4
0.11900	-4
0.12267	-5
0.12633	-5
0.13000	-5
0.13367	-6
0.13733	-6
0.14100	-6
0.14467	-6
0.14833	-6
0.15200	-6
0.15567	-6
0.15933	-6
0.16300	-6
0.16667	-5
0.17033	-5
0.17400	-5
0.17767	-5
0.18133	-5
0.18500	-5
0.18867	-5
0.19233	-5
0.19600	-5
0.19967	-4
0.20333	-4
0.20700	-4
0.21067	-4
0.21433	-4
0.21800	-3
0.22167	-3
0.22533	-3
0.22900	-3
0.23267	-3
0.23633	-3
0.24000	-3
0.24367	-3
0.24733	-3
0.25100	-3
0.25467	-3
0.25833	-3
0.26200	-2
0.26567	-2
0.26933	-2
0.27300	-2
0.27667	-2
0.28033	-2
0.28400	-2
0.28767	-2
0.29133	-2
0.29500	-2
0.29867	-3
0.30233	-3
0.30600	-4
0.30967	-4
0.31333	-4
0.31700	-4
0.32067	-4
0.32433	-4
0.32800	-4
0.33167	-4
0.33533	-3
0.33900	-3
0.34267	-3
0.34633	-2
0.35000	-2
0.35367	-2
0.35733	-2
0.36100	-2
0.36467	-2
0.36833	-2
0.37200	-2
0.37567	-2
0.37933	-2
0.38300	-1
0.38667	-1
0.39033	-0
0.39400	0
0.39767	0
0.40133	0
0.40500	0
0.40867	-0
0.41233	-0
0.41600	-0
0.41967	-0
0.42333	-1
0.42700	-1
0.43067	-1
0.43433	-2
0.43800	-2
0.44167	-2
0.44533	-3
0.44900	-3
0.45267	-4
0.45633	-4
0.46000	-4
0.46367	-5
0.46733	-5
0.47100	-5
0.47467	-5
0.47833	-5
0.48200	-5
0.48567	-5
0.48933	-5
0.49300	-5
0.49667	-5
0.50033	-5
0.50400	-4
0.50767	-4
0.51133	-4
0.51500	-4
0.51867	-4
0.52233	-4
0.52600	-4
0.52967	-4
0.53333	-4
0.53700	-4
0.54067	-4
0.54433	-4
0.54800	-4
0.55167	-3
0.55533	-3
0.55900	-3
0.56267	-3
0.56633	-2
0.57000	-2
0.57367	-2
0.57733	-2
0.58100	-2
0.58467	-2
0.58833	-2
0.59200	-2
0.59567	-2
0.59933	-2
0.60300	-3
0.60667	-3
0.61033	-3
0.61400	-3
0.61767	-3
0.62133	-4
0.62500	-4
0.62867	-4
0.63233	-5
0.63600	-5
0.63967	-5
0.64333	-5
0.64700	-5
0.65067	-5
0.65433	-5
0.65800	-5
0.66167	-5
0.66533	-5
0.66900	-5
0.67267	-5
0.67633	-5
0.68000	-5
0.68367	-4
0.68733	-4
0.69100	-4
0.69467	-4
0.69833	-4
0.70200	-4
0.70567	-4
0.70933	-4
0.71300	-4
0.71667	-4
0.72033	-4
0.72400	-4
0.72767	-5
0.73133	-5
0.73500	-5
0.73867	-4
0.74233	-4
0.74600	-4
0.74967	-3
0.75333	-3
0.75700	-3
0.76067	-3
0.76433	-3
0.76800	-3
0.77167	-2
0.77533	-2
0.77900	-2
0.78267	-1
0.78633	-1
0.79000	-1
0.79367	-1
0.79733	-1
0.80100	-1
0.80467	-1
0.80833	-1
0.81200	-2
0.81567	-2
0.81933	-2
0.82300	-3
0.82667	-3
0.83033	-4
0.83400	-4
0.83767	-5
0.84133	-5
0.84500	-5
0.84867	-5
0.85233	-5
0.85600	-5
0.85967	-4
0.86333	-4
0.86700	-3
0.87067	-3
0.87433	-3
0.87800	-3
0.88167	-3
0.88533	-3
0.88900	-3
0.89267	-3
0.89633	-3
0.90000	-3
0.90367	-3
0.90733	-3
0.91100	-3
0.91467	-3
0.91833	-3
0.92200	-4
0.92567	-4
0.92933	-4
0.93300	-4
0.93667	-4
0.94033	-4
0.94400	-4
0.94767	-4
0.95133	-4
0.95500	-5
0.95867	-5
0.96233	-6
0.96600	-6
0.96967	-7
0.97333	-7
0.97700	-7
0.98067	-7
0.98433	-7
0.98800	-7
0.99167	-7
0.99533	-7
0.99900	-7
1.00267	-7
1.00633	-6
1.01000	-6
1.01367	-6
1.01733	-6
1.02100	-6
1.02467	-5
1.02833	-5
1.03200	-5
1.03567	-4
1.03933	-4
1.04300	-3
1.04667	-3
1.05033	-3
1.05400	-2
1.05767	-2
1.06133	-2
1.06500	-2
1.06867	-2
1.07233	-2
1.07600	-2
1.07967	-3
1.08333	-3
1.08700	-3
1.09067	-3
1.09433	-4
1.09800	-4
1.10167	-4
1.10533	-5
1.10900	-5
1.11267	-5
1.11633	-6
1.12000	-6
1.12367	-6
1.12733	-6
1.13100	-6
1.13467	-6
1.13833	-6
1.14200	-5
1.14567	-5
1.14933	-4
1.15300	-4
1.15667	-4
1.16033	-4
1.16400	-4
1.16767	-4
1.17133	-4
1.17500	-4
1.17867	-4
1.18233	-4
1.18600	-4
1.18967	-5
1.19333	-5
1.19700	-5
1.20067	-5
1.20433	-5
1.20800	-5
1.21167	-5
1.21533	-5
1.21900	-5
1.22267	-5
1.22633	-5
1.23000	-5
1.23367	-4
1.23733	-4
1.24100	-4
1.24467	-4
1.24833	-4
1.25200	-4
1.25567	-4
1.25933	-4
1.26300	-4
1.26667	-4
1.27033	-5
1.27400	-5
1.27767	-5
1.28133	-5
1.28500	-6
1.28867	-6
1.29233	-6
1.29600	-6
1.29967	-6
1.30333	-6
1.30700	-6
1.31067	-6
1.31433	-6
1.31800	-6
1.32167	-6
1.32533	-6
1.32900	-6
1.33267	-6
1.33633	-6
1.34000	-6
1.34367	-5
1.34733	-5
1.35100	-5
1.35467	-5
1.35833	-5
1.36200	-5
1.36567	-5
1.36933	-5
1.37300	-5
1.37667	-5
1.38033	-5
1.38400	-5
1.38767	-5
1.39133	-5
1.39500	-5
1.39867	-5
1.40233	-5
1.40600	-5
1.40967	-5
1.41333	-5
1.41700	-5
1.42067	-5
1.42433	-5
1.42800	-6
1.43167	-6
1.43533	-6
1.43900	-6
1.44267	-6
1.44633	-6
1.45000	-6
1.45367	-6
1.45733	-6
1.46100	-6
1.46467	-6
1.46833	-6
1.47200	-6
1.47567	-6
1.47933	-6
1.48300	-6
1.48667	-6
1.49033	-6
1.49400	-6
1.49767	-6
1.50133	-6
1.50500	-6
1.50867	-6
1.51233	-6
1.51600	-6
1.51967	-6
1.52333	-6
1.52700	-6
1.53067	-6
1.53433	-6
1.53800	-6
1.54167	-6
1.54533	-6
1.54900	-6
1.55267	-6
1.55633	-6
1.56000	-6
1.56367	-5
1.56733	-5
1.57100	-5
1.57467	-5
1.57833	-5
1.58200	-5
1.58567	-4
1.58933	-4
1.59300	-5
1.59667	-5
1.60033	-6
1.60400	-7
1.60767	-8
1.61133	-10
1.61500	-12
1.61867	-14
1.62233	-17
1.62600	-20
1.62967	-23
1.63333	-27
1.63700	-30
1.64067	-34
1.64433	-38
1.64800	-41
1.65167	-45
1.65533	-49
1.65900	-52
1.66267	-56
1.66633	-60
1.67000	-64
1.67367	-68
1.67733	-72
1.68100	-77
1.68467	-82
1.68833	-87
1.69200	-91
1.69567	-95
1.69933	-98
1.70300	-101
1.70667	-103
1.71033	-105
1.71400	-106
1.71767	-107
1.72133	-108
1.72500	-108
1.72867	-109
1.73233	-109
1.73600	-109
1.73967	-109
1.74333	-109
1.74700	-109
1.75067	-109
1.75433	-109
1.75800	-109
1.76167	-110
1.76533	-110
1.76900	-111
1.77267	-112
1.77633	-113
1.78000	-114
1.78367	-115
1.78733	-116
1.79100	-116
1.79467	-117
1.79833	-117
1.80200	-116
1.80567	-116
1.80933	-116
1.81300	-117
1.81667	-117
1.82033	-117
1.82400	-117
1.82767	-117
1.83133	-117
1.83500	-117
1.83867	-117
1.84233	-116
1.84600	-115
1.84967	-114
1.85333	-113
1.85700	-113
1.86067	-112
1.86433	-112
1.86800	-112
1.87167	-112
1.87533	-113
1.87900	-113
1.88267	-114
1.88633	-115
1.89000	-115
1.89367	-115
1.89733	-115
1.90100	-115
1.90467	-114
1.90833	-114
1.91200	-114
1.91567	-115
1.91933	-115
1.92300	-115
1.92667	-114
1.93033	-114
1.93400	-113
1.93767	-113
1.94133	-113
1.94500	-113
1.94867	-112
1.95233	-112
1.95600	-112
1.95967	-111
1.96333	-111
1.96700	-111
1.97067	-111
1.97433	-111
1.97800	-110
1.98167	-109
1.98533	-109
1.98900	-108
1.99267	-107
1.99633	-106
2.00000	-106
2.00367	-106
2.00733	-106
2.01100	-106
2.01467	-106
2.01833	-106
2.02200	-107
2.02567	-107
2.02933	-107
2.03300	-108
2.03667	-108
2.04033	-108
2.04400	-107
2.04767	-107
2.05133	-106
2.05500	-105
2.05867	-105
2.06233	-104
2.06600	-103
2.06967	-103
2.07333	-103
2.07700	-103
2.08067	-102
2.08433	-102
2.08800	-102
2.09167	-102
2.09533	-102
2.09900	-102
2.10267	-101
2.10633	-100
2.11000	-99
2.11367	-99
2.11733	-98
2.12100	-98
2.12467	-98
2.12833	-98
2.13200	-98
2.13567	-98
2.13933	-98
2.14300	-98
2.14667	-97
2.15033	-97
2.15400	-97
2.15767	-97
2.16133	-96
2.16500	-96
2.16867	-96
2.17233	-95
2.17600	-95
2.17967	-95
2.18333	-95
2.18700	-94
2.19067	-95
2.19433	-95
2.19800	-95
2.20167	-95
2.20533	-95
2.20900	-94
2.21267	-94
2.21633	-93
2.22000	-92
2.22367	-91
2.22733	-91
2.23100	-91
2.23467	-90
2.23833	-90
2.24200	-90
2.24567	-90
2.24933	-90
2.25300	-90
2.25667	-90
2.26033	-90
2.26400	-89
2.26767	-89
2.27133	-89
2.27500	-88
2.27867	-88
2.28233	-88
2.28600	-88
2.28967	-88
2.29333	-88
2.29700	-87
2.30067	-87
2.30433	-86
2.30800	-85
2.31167	-84
2.31533	-83
2.31900	-82
2.32267	-81
2.32633	-81
2.33000	-81
2.33367	-81
2.33733	-80
2.34100	-80
2.34467	-80
2.34833	-79
2.35200	-78
2.35567	-77
2.35933	-76
2.36300	-74
2.36667	-73
2.37033	-71
2.37400	-69
2.37767	-66
2.38133	-63
2.38500	-59
2.38867	-55
2.39233	-51
2.39600	-46
2.39967	-42
2.40333	-38
2.40700	-34
2.41067	-30
2.41433	-26
2.41800	-23
2.42167	-20
2.42533	-17
2.42900	-15
2.43267	-13
2.43633	-12
2.44000	-11
2.44367	-10
2.44733	-9
2.45100	-9
2.45467	-8
2.45833	-9
2.46200	-8
2.46567	-8
2.46933	-7
2.47300	-6
2.47667	-5
2.48033	-4
2.48400	-3
2.48767	-2
2.49133	-2
2.49500	-1
2.49867	-0
2.50233	1
2.50600	2
2.50967	3
2.51333	4
2.51700	4
2.52067	5
2.52433	6
2.52800	6
2.53167	7
2.53533	8
2.53900	8
2.54267	9
2.54633	10
2.55000	10
2.55367	11
2.55733	11
2.56100	11
2.56467	11
2.56833	11
2.57200	11
2.57567	11
2.57933	12
2.58300	12
2.58667	13
2.59033	14
2.59400	14
2.59767	14
2.60133	15
2.60500	15
2.60867	15
2.61233	15
2.61600	15
2.61967	15
2.62333	15
2.62700	15
2.63067	15
2.63433	15
2.63800	15
2.64167	15
2.64533	15
2.64900	15
2.65267	15
2.65633	16
2.66000	16
2.66367	16
2.66733	16
2.67100	16
2.67467	17
2.67833	17
2.68200	17
2.68567	18
2.68933	19
2.69300	20
2.69667	20
2.70033	21
2.70400	22
2.70767	23
2.71133	23
2.71500	23
2.71867	23
2.72233	23
2.72600	23
2.72967	23
2.73333	23
2.73700	22
2.74067	22
2.74433	22
2.74800	21
2.75167	21
2.75533	21
2.75900	21
2.76267	21
2.76633	22
2.77000	22
2.77367	22
2.77733	23
2.78100	23
2.78467	23
2.78833	23
2.79200	23
2.79567	23
2.79933	23
2.80300	23
2.80667	23
2.81033	23
2.81400	23
2.81767	23
2.82133	24
2.82500	24
2.82867	24
2.83233	24
2.83600	24
2.83967	23
2.84333	22
2.84700	20
2.85067	16
2.85433	9
2.85800	-0
2.86167	-13
2.86533	-30
2.86900	-51
2.87267	-76
2.87633	-106
2.88000	-140
2.88367	-179
2.88733	-221
2.89100	-267
2.89467	-315
2.89833	-367
2.90200	-420
2.90567	-474
2.90933	-530
2.91300	-586
2.91667	-641
2.92033	-697
2.92400	-751
2.92767	-803
2.93133	-854
2.93500	-907
2.93867	-965
2.94233	-1022
2.94600	-1069
2.94967	-1097
2.95333	-1099
2.95700	-1075
2.96067	-1029
2.96433	-967
2.96800	-893
2.97167	-814
2.97533	-733
2.97900	-654
2.98267	-578
2.98633	-507
2.99000	-443
2.99367	-384
2.99733	-332
3.00100	-285
3.00467	-244
3.00833	-209
3.01200	-178
3.01567	-151
3.01933	-128
3.02300	-108
3.02667	-91
3.03033	-76
3.03400	-64
3.03767	-53
3.04133	-43
3.04500	-35
3.04867	-28
3.05233	-23
3.05600	-18
3.05967	-13
3.06333	-10
3.06700	-6
3.07067	-4
3.07433	-1
3.07800	1
3.08167	3
3.08533	4
3.08900	6
3.09267	7
3.09633	7
3.10000	8
3.10367	9
3.10733	10
3.11100	10
3.11467	11
3.11833	12
3.12200	12
3.12567	12
3.12933	12
3.13300	13
3.13667	13
3.14033	14
3.14400	14
3.14767	15
3.15133	15
3.15500	15
3.15867	16
3.16233	16
3.16600	16
3.16967	16
3.17333	16
3.17700	16
3.18067	16
3.18433	16
3.18800	16
3.19167	16
3.19533	17
3.19900	17
3.20267	17
3.20633	17
3.21000	17
3.21367	17
3.21733	17
3.22100	17
3.22467	18
3.22833	18
3.23200	18
3.23567	19
3.23933	19
3.24300	19
3.24667	20
3.25033	20
3.25400	21
3.25767	21
3.26133	22
3.26500	22
3.26867	22
3.27233	23
3.27600	23
3.27967	23
3.28333	23
3.28700	23
3.29067	23
3.29433	24
3.29800	24
3.30167	24
3.30533	24
3.30900	25
3.31267	25
3.31633	25
3.32000	26
3.32367	26
3.32733	27
3.33100	27
3.33467	27
3.33833	27
3.34200	27
3.34567	27
3.34933	27
3.35300	27
3.35667	27
3.36033	27
3.36400	27
3.36767	27
3.37133	27
3.37500	27
3.37867	27
3.38233	27
3.38600	27
3.38967	27
3.39333	27
3.39700	27
3.40067	26
3.40433	26
3.40800	26
3.41167	26
3.41533	26
3.41900	26
3.42267	26
3.42633	26
3.43000	26
3.43367	25
3.43733	25
3.44100	25
3.44467	25
3.44833	24
3.45200	24
3.45567	24
3.45933	23
3.46300	23
3.46667	23
3.47033	23
3.47400	23
3.47767	23
3.48133	23
3.48500	23
3.48867	23
3.49233	23
3.49600	23
3.49967	23
3.50333	23
3.50700	23
3.51067	23
3.51433	23
3.51800	23
3.52167	23
3.52533	23
3.52900	23
3.53267	23
3.53633	23
3.54000	23
3.54367	24
3.54733	24
3.55100	24
3.55467	24
3.55833	24
3.56200	24
3.56567	24
3.56933	24
3.57300	24
3.57667	24
3.58033	24
3.58400	24
3.58767	24
3.59133	24
3.59500	25
3.59867	25
3.60233	25
3.60600	24
3.60967	24
3.61333	24
3.61700	24
3.62067	24
3.62433	24
3.62800	24
3.63167	24
3.63533	24
3.63900	24
3.64267	24
3.64633	24
3.65000	24
3.65367	25
3.65733	25
3.66100	25
3.66467	25
3.66833	25
3.67200	25
3.67567	25
3.67933	25
3.68300	25
3.68667	25
3.69033	25
3.69400	25
3.69767	25
3.70133	25
3.70500	24
3.70867	24
3.71233	24
3.71600	24
3.71967	24
3.72333	24
3.72700	23
3.73067	23
3.73433	23
3.73800	22
3.74167	22
3.74533	22
3.74900	22
3.75267	22
3.75633	22
3.76000	22
3.76367	22
3.76733	22
3.77100	22
3.77467	22
3.77833	22
3.78200	22
3.78567	22
3.78933	22
3.79300	22
3.79667	22
3.80033	22
3.80400	23
3.80767	23
3.81133	23
3.81500	24
3.81867	24
3.82233	24
3.82600	25
3.82967	25
3.83333	25
3.83700	25
3.84067	25
3.84433	25
3.84800	25
3.85167	25
3.85533	24
3.85900	24
3.86267	24
3.86633	24
3.87000	24
3.87367	24
3.87733	24
3.88100	25
3.88467	25
3.88833	25
3.89200	24
3.89567	24
3.89933	24
3.90300	24
3.90667	24
3.91033	25
3.91400	25
3.91767	25
3.92133	25
3.92500	25
3.92867	25
3.93233	25
3.93600	25
3.93967	25
3.94333	25
3.94700	26
3.95067	26
3.95433	26
3.95800	26
3.96167	26
3.96533	26
3.96900	26
3.97267	27
3.97633	27
3.98000	27
3.98367	27
3.98733	27
3.99100	27
3.99467	27
3.99833	27

[Chromatogram (Ch3)]
Interval(msec)	220
# of Points	1091
Start Time(min)	0.002
End Time(min)	3.998
R.Time (min)	Intensity
0.00167	1
0.00533	3
0.00900	1
0.01267	-1
0.01633	-3
0.02000	-4
0.02367	-4
0.02733	-3
0.03100	-4
0.03467	-5
0.03833	-4
0.04200	-3
0.04567	-0
0.04933	1
0.05300	1
0.05667	-1
0.06033	-0
0.06400	-0
0.06767	1
0.07133	2
0.07500	2
0.07867	2
0.08233	1
0.08600	3
0.08967	4
0.09333	5
0.09700	5
0.10067	4
0.10433	5
0.10800	5
0.11167	4
0.11533	5
0.11900	7
0.12267	7
0.12633	6
0.13000	4
0.13367	2
0.13733	-0
0.14100	-0
0.14467	-1
0.14833	1
0.15200	3
0.15567	5
0.15933	5
0.16300	4
0.16667	3
0.17033	3
0.17400	3
0.17767	2
0.18133	2
0.18500	1
0.18867	3
0.19233	3
0.19600	4
0.19967	3
0.20333	2
0.20700	1
0.21067	1
0.21433	3
0.21800	2
0.22167	3
0.22533	3
0.22900	4
0.23267	5
0.23633	7
0.24000	7
0.24367	5
0.24733	3
0.25100	1
0.25467	0
0.25833	0
0.26200	-0
0.26567	-1
0.26933	0
0.27300	2
0.27667	2
0.28033	3
0.28400	5
0.28767	4
0.29133	1
0.29500	-1
0.29867	-3
0.30233	-4
0.30600	-6
0.30967	-6
0.31333	-4
0.31700	-1
0.32067	1
0.32433	2
0.32800	2
0.33167	3
0.33533	4
0.33900	4
0.34267	4
0.34633	3
0.35000	4
0.35367	4
0.35733	3
0.36100	3
0.36467	3
0.36833	3
0.37200	1
0.37567	-0
0.37933	0
0.38300	2
0.38667	2
0.39033	2
0.39400	0
0.39767	-1
0.40133	-1
0.40500	-1
0.40867	-2
0.41233	-2
0.41600	-2
0.41967	-2
0.42333	-2
0.42700	-2
0.43067	-4
0.43433	-5
0.43800	-5
0.44167	-2
0.44533	-1
0.44900	-1
0.45267	-1
0.45633	0
0.46000	-1
0.46367	-1
0.46733	-2
0.47100	-2
0.47467	-3
0.47833	-4
0.48200	-6
0.48567	-7
0.48933	-7
0.49300	-4
0.49667	-0
0.50033	2
0.50400	2
0.50767	-1
0.51133	-4
0.51500	-2
0.51867	-1
0.52233	-2
0.52600	-3
0.52967	-3
0.53333	-2
0.53700	-1
0.54067	1
0.54433	4
0.54800	7
0.55167	5
0.55533	2
0.55900	1
0.56267	-1
0.56633	-1
0.57000	0
0.57367	2
0.57733	0
0.58100	0
0.58467	0
0.58833	-0
0.59200	-1
0.59567	-1
0.59933	1
0.60300	1
0.60667	-2
0.61033	-4
0.61400	-4
0.61767	-4
0.62133	-3
0.62500	-1
0.62867	1
0.63233	2
0.63600	2
0.63967	-0
0.64333	-2
0.64700	-3
0.65067	-4
0.65433	-2
0.65800	-2
0.66167	-1
0.66533	2
0.66900	3
0.67267	4
0.67633	5
0.68000	3
0.68367	2
0.68733	1
0.69100	-0
0.69467	-1
0.69833	-2
0.70200	-1
0.70567	0
0.70933	0
0.71300	-0
0.71667	1
0.72033	2
0.72400	3
0.72767	1
0.73133	-2
0.73500	-3
0.73867	-3
0.74233	-4
0.74600	-3
0.74967	-2
0.75333	-3
0.75700	-3
0.76067	-3
0.76433	-2
0.76800	-2
0.77167	1
0.77533	4
0.77900	5
0.78267	4
0.78633	2
0.79000	2
0.79367	2
0.79733	1
0.80100	-0
0.80467	-1
0.80833	-2
0.81200	-3
0.81567	-1
0.81933	1
0.82300	1
0.82667	1
0.83033	1
0.83400	2
0.83767	3
0.84133	4
0.84500	3
0.84867	1
0.85233	-1
0.85600	-2
0.85967	-2
0.86333	0
0.86700	3
0.87067	5
0.87433	6
0.87800	6
0.88167	7
0.88533	8
0.88900	7
0.89267	7
0.89633	8
0.90000	9
0.90367	9
0.90733	9
0.91100	9
0.91467	10
0.91833	10
0.92200	7
0.92567	6
0.92933	7
0.93300	8
0.93667	6
0.94033	5
0.94400	7
0.94767	8
0.95133	6
0.95500	2
0.95867	1
0.96233	0
0.96600	1
0.96967	4
0.97333	4
0.97700	3
0.98067	4
0.98433	6
0.98800	6
0.99167	5
0.99533	3
0.99900	3
1.00267	3
1.00633	6
1.01000	8
1.01367	8
1.01733	9
1.02100	8
1.02467	6
1.02833	6
1.03200	7
1.03567	8
1.03933	8
1.04300	9
1.04667	11
1.05033	11
1.05400	9
1.05767	6
1.06133	6
1.06500	8
1.06867	10
1.07233	12
1.07600	14
1.07967	14
1.08333	13
1.08700	13
1.09067	13
1.09433	13
1.09800	14
1.10167	16
1.10533	15
1.10900	16
1.11267	16
1.11633	16
1.12000	15
1.12367	15
1.12733	17
1.13100	20
1.13467	19
1.13833	19
1.14200	20
1.14567	22
1.14933	23
1.15300	23
1.15667	24
1.16033	25
1.16400	25
1.16767	25
1.17133	24
1.17500	24
1.17867	23
1.18233	21
1.18600	22
1.18967	23
1.19333	22
1.19700	21
1.20067	22
1.20433	22
1.20800	22
1.21167	23
1.21533	25
1.21900	28
1.22267	30
1.22633	31
1.23000	30
1.23367	30
1.23733	28
1.24100	26
1.24467	26
1.24833	26
1.25200	27
1.25567	26
1.25933	26
1.26300	27
1.26667	28
1.27033	29
1.27400	31
1.27767	34
1.28133	34
1.28500	33
1.28867	32
1.29233	30
1.29600	28
1.29967	27
1.30333	25
1.30700	26
1.31067	26
1.31433	26
1.31800	27
1.32167	29
1.32533	28
1.32900	26
1.33267	27
1.33633	26
1.34000	24
1.34367	22
1.34733	21
1.35100	21
1.35467	22
1.35833	23
1.36200	22
1.36567	21
1.36933	22
1.37300	21
1.37667	19
1.38033	18
1.38400	19
1.38767	19
1.39133	20
1.39500	23
1.39867	25
1.40233	26
1.40600	25
1.40967	23
1.41333	22
1.41700	21
1.42067	21
1.42433	19
1.42800	17
1.43167	17
1.43533	16
1.43900	15
1.44267	16
1.44633	17
1.45000	19
1.45367	20
1.45733	20
1.46100	19
1.46467	20
1.46833	20
1.47200	22
1.47567	23
1.47933	24
1.48300	24
1.48667	24
1.49033	21
1.49400	19
1.49767	17
1.50133	17
1.50500	16
1.50867	14
1.51233	12
1.51600	13
1.51967	14
1.52333	14
1.52700	15
1.53067	16
1.53433	16
1.53800	16
1.54167	15
1.54533	16
1.54900	16
1.55267	16
1.55633	17
1.56000	17
1.56367	15
1.56733	15
1.57100	16
1.57467	16
1.57833	16
1.58200	16
1.58567	15
1.58933	16
1.59300	17
1.59667	19
1.60033	18
1.60400	15
1.60767	14
1.61133	14
1.61500	14
1.61867	16
1.62233	16
1.62600	18
1.62967	21
1.63333	22
1.63700	24
1.64067	25
1.64433	25
1.64800	25
1.65167	26
1.65533	24
1.65900	23
1.66267	23
1.66633	22
1.67000	23
1.67367	26
1.67733	27
1.68100	30
1.68467	31
1.68833	32
1.69200	32
1.69567	33
1.69933	32
1.70300	31
1.70667	32
1.71033	33
1.71400	33
1.71767	34
1.72133	34
1.72500	35
1.72867	35
1.73233	37
1.73600	37
1.73967	37
1.74333	38
1.74700	40
1.75067	41
1.75433	40
1.75800	41
1.76167	42
1.76533	42
1.76900	42
1.77267	43
1.77633	44
1.78000	43
1.78367	43
1.78733	45
1.79100	46
1.79467	45
1.79833	44
1.80200	45
1.80567	45
1.80933	43
1.81300	43
1.81667	44
1.82033	46
1.82400	48
1.82767	49
1.83133	49
1.83500	49
1.83867	50
1.84233	52
1.84600	52
1.84967	51
1.85333	51
1.85700	50
1.86067	51
1.86433	53
1.86800	55
1.87167	58
1.87533	58
1.87900	59
1.88267	62
1.88633	62
1.89000	62
1.89367	63
1.89733	65
1.90100	67
1.90467	67
1.90833	68
1.91200	70
1.91567	72
1.91933	71
1.92300	68
1.92667	66
1.93033	67
1.93400	70
1.93767	72
1.94133	72
1.94500	73
1.94867	73
1.95233	74
1.95600	73
1.95967	74
1.96333	77
1.96700	80
1.97067	81
1.97433	82
1.97800	83
1.98167	86
1.98533	89
1.98900	91
1.99267	91
1.99633	90
2.00000	90
2.00367	92
2.00733	93
2.01100	95
2.01467	97
2.01833	99
2.02200	102
2.02567	103
2.02933	104
2.03300	108
2.03667	112
2.04033	112
2.04400	112
2.04767	114
2.05133	116
2.05500	116
2.05867	115
2.06233	116
2.06600	117
2.06967	118
2.07333	119
2.07700	121
2.08067	124
2.08433	128
2.08800	131
2.09167	131
2.09533	130
2.09900	132
2.10267	133
2.10633	133
2.11000	134
2.11367	136
2.11733	136
2.12100	138
2.12467	139
2.12833	140
2.13200	143
2.13567	144
2.13933	145
2.14300	146
2.14667	148
2.15033	151
2.15400	153
2.15767	154
2.16133	155
2.16500	155
2.16867	157
2.17233	157
2.17600	160
2.17967	163
2.18333	166
2.18700	167
2.19067	168
2.19433	171
2.19800	173
2.20167	174
2.20533	174
2.20900	175
2.21267	175
2.21633	175
2.22000	177
2.22367	178
2.22733	180
2.23100	183
2.23467	186
2.23833	187
2.24200	188
2.24567	190
2.24933	192
2.25300	194
2.25667	194
2.26033	195
2.26400	197
2.26767	198
2.27133	199
2.27500	199
2.27867	200
2.28233	201
2.28600	204
2.28967	205
2.29333	206
2.29700	210
2.30067	213
2.30433	215
2.30800	216
2.31167	218
2.31533	220
2.31900	218
2.32267	219
2.32633	221
2.33000	224
2.33367	226
2.33733	226
2.34100	228
2.34467	231
2.34833	230
2.35200	230
2.35567	232
2.35933	234
2.36300	235
2.36667	235
2.37033	236
2.37400	239
2.37767	241
2.38133	242
2.38500	243
2.38867	239
2.39233	237
2.39600	239
2.39967	243
2.40333	246
2.40700	250
2.41067	254
2.41433	256
2.41800	259
2.42167	262
2.42533	264
2.42900	265
2.43267	266
2.43633	268
2.44000	271
2.44367	328
2.44733	480
2.45100	646
2.45467	784
2.45833	861
2.46200	864
2.46567	823
2.46933	770
2.47300	725
2.47667	694
2.48033	669
2.48400	637
2.48767	592
2.49133	541
2.49500	490
2.49867	447
2.50233	417
2.50600	400
2.50967	394
2.51333	401
2.51700	418
2.52067	441
2.52433	462
2.52800	473
2.53167	471
2.53533	455
2.53900	428
2.54267	396
2.54633	361
2.55000	329
2.55367	300
2.55733	278
2.56100	260
2.56467	247
2.56833	238
2.57200	231
2.57567	226
2.57933	222
2.58300	220
2.58667	221
2.59033	224
2.59400	224
2.59767	223
2.60133	221
2.60500	213
2.60867	201
2.61233	188
2.61600	174
2.61967	160
2.62333	147
2.62700	135
2.63067	125
2.63433	115
2.63800	104
2.64167	94
2.64533	84
2.64900	72
2.65267	59
2.65633	45
2.66000	34
2.66367	26
2.66733	18
2.67100	11
2.67467	5
2.67833	1
2.68200	-1
2.68567	-3
2.68933	-4
2.69300	-3
2.69667	-3
2.70033	-2
2.70400	2
2.70767	6
2.71133	9
2.71500	14
2.71867	20
2.72233	26
2.72600	33
2.72967	38
2.73333	44
2.73700	47
2.74067	50
2.74433	54
2.74800	60
2.75167	64
2.75533	68
2.75900	71
2.76267	73
2.76633	76
2.77000	81
2.77367	84
2.77733	88
2.78100	90
2.78467	93
2.78833	99
2.79200	103
2.79567	107
2.79933	112
2.80300	119
2.80667	124
2.81033	130
2.81400	137
2.81767	146
2.82133	157
2.82500	176
2.82867	211
2.83233	277
2.83600	395
2.83967	588
2.84333	873
2.84700	1259
2.85067	1740
2.85433	2297
2.85800	2891
2.86167	3476
2.86533	4008
2.86900	4444
2.87267	4750
2.87633	4912
2.88000	4935
2.88367	4832
2.88733	4626
2.89100	4346
2.89467	4021
2.89833	3677
2.90200	3327
2.90567	2988
2.90933	2668
2.91300	2372
2.91667	2102
2.92033	1859
2.92400	1641
2.92767	1446
2.93133	1274
2.93500	1121
2.93867	987
2.94233	870
2.94600	769
2.94967	683
2.95333	609
2.95700	545
2.96067	487
2.96433	436
2.96800	393
2.97167	354
2.97533	318
2.97900	287
2.98267	260
2.98633	239
2.99000	221
2.99367	206
2.99733	192
3.00100	180
3.00467	169
3.00833	158
3.01200	151
3.01567	147
3.01933	142
3.02300	136
3.02667	130
3.03033	126
3.03400	123
3.03767	121
3.04133	120
3.04500	115
3.04867	110
3.05233	106
3.05600	102
3.05967	100
3.06333	98
3.06700	100
3.07067	100
3.07433	101
3.07800	101
3.08167	102
3.08533	100
3.08900	100
3.09267	100
3.09633	99
3.10000	97
3.10367	98
3.10733	97
3.11100	97
3.11467	99
3.11833	100
3.12200	98
3.12567	82
3.12933	46
3.13300	10
3.13667	-4
3.14033	3
3.14400	27
3.14767	63
3.15133	111
3.15500	168
3.15867	226
3.16233	285
3.16600	340
3.16967	391
3.17333	438
3.17700	481
3.18067	518
3.18433	552
3.18800	582
3.19167	608
3.19533	629
3.19900	645
3.20267	657
3.20633	669
3.21000	680
3.21367	688
3.21733	696
3.22100	704
3.22467	711
3.22833	718
3.23200	723
3.23567	727
3.23933	734
3.24300	740
3.24667	748
3.25033	753
3.25400	759
3.25767	765
3.26133	773
3.26500	779
3.26867	784
3.27233	791
3.27600	800
3.27967	808
3.28333	813
3.28700	819
3.29067	824
3.29433	829
3.29800	834
3.30167	837
3.30533	842
3.30900	847
3.31267	854
3.31633	862
3.32000	867
3.32367	871
3.32733	874
3.33100	879
3.33467	882
3.33833	885
3.34200	887
3.34567	888
3.34933	890
3.35300	893
3.35667	896
3.36033	898
3.36400	898
3.36767	900
3.37133	902
3.37500	903
3.37867	902
3.38233	902
3.38600	901
3.38967	900
3.39333	898
3.39700	896
3.40067	895
3.40433	891
3.40800	887
3.41167	885
3.41533	881
3.41900	877
3.42267	870
3.42633	864
3.43000	861
3.43367	857
3.43733	854
3.44100	850
3.44467	846
3.44833	843
3.45200	839
3.45567	835
3.45933	831
3.46300	827
3.46667	824
3.47033	821
3.47400	818
3.47767	815
3.48133	811
3.48500	808
3.48867	805
3.49233	803
3.49600	801
3.49967	799
3.50333	796
3.50700	792
3.51067	787
3.51433	785
3.51800	784
3.52167	782
3.52533	782
3.52900	782
3.53267	782
3.53633	781
3.54000	781
3.54367	781
3.54733	781
3.55100	778
3.55467	776
3.55833	776
3.56200	776
3.56567	775
3.56933	774
3.57300	774
3.57667	774
3.58033	775
3.58400	776
3.58767	778
3.59133	778
3.59500	779
3.59867	777
3.60233	776
3.60600	774
3.60967	773
3.61333	772
3.61700	770
3.62067	768
3.62433	766
3.62800	765
3.63167	765
3.63533	765
3.63900	763
3.64267	759
3.64633	755
3.65000	752
3.65367	751
3.65733	750
3.66100	748
3.66467	746
3.66833	742
3.67200	738
3.67567	736
3.67933	732
3.68300	728
3.68667	727
3.69033	725
3.69400	723
3.69767	722
3.70133	719
3.70500	716
3.70867	713
3.71233	711
3.71600	710
3.71967	709
3.72333	709
3.72700	709
3.73067	708
3.73433	707
3.73800	707
3.74167	705
3.74533	702
3.74900	698
3.75267	696
3.75633	694
3.76000	692
3.76367	690
3.76733	688
3.77100	687
3.77467	684
3.77833	682
3.78200	680
3.78567	678
3.78933	678
3.79300	676
3.79667	672
3.80033	668
3.80400	664
3.80767	660
3.81133	658
3.81500	657
3.81867	655
3.82233	652
3.82600	647
3.82967	646
3.83333	644
3.83700	641
3.84067	637
3.84433	635
3.84800	633
3.85167	631
3.85533	630
3.85900	628
3.86267	627
3.86633	626
3.87000	624
3.87367	620
3.87733	617
3.88100	615
3.88467	614
3.88833	613
3.89200	614
3.89567	615
3.89933	615
3.90300	612
3.90667	608
3.91033	604
3.91400	601
3.91767	601
3.92133	603
3.92500	602
3.92867	599
3.93233	595
3.93600	593
3.93967	592
3.94333	589
3.94700	586
3.95067	585
3.95433	582
3.95800	579
3.96167	577
3.96533	576
3.96900	574
3.97267	573
3.97633	574
3.98000	575
3.98367	574
3.98733	571
3.99100	567
3.99467	564
3.99833	561

[Status Trace (Column Oven Temperature)]
Interval(msec)	1000
# of Points	240
Start Time(min)	0.015
End Time(min)	3.998
Intensity Units	
Intensity Multiplier	1
R.Time (min)	Intensity
0.01463	35.04
0.03130	35.05
0.04797	35.05
0.06463	35.06
0.08130	35.06
0.09797	35.06
0.11463	35.07
0.13130	35.07
0.14797	35.08
0.16463	35.09
0.18130	35.08
0.19797	35.08
0.21463	35.07
0.23130	35.05
0.24797	35.04
0.26463	35.03
0.28130	35.03
0.29797	35.04
0.31463	35.03
0.33130	35.03
0.34797	35.03
0.36463	35.02
0.38130	35.00
0.39797	34.99
0.41463	34.98
0.43130	34.98
0.44797	34.99
0.46463	35.00
0.48130	35.00
0.49797	35.00
0.51463	35.00
0.53130	35.00
0.54797	34.99
0.56463	34.99
0.58130	34.99
0.59797	34.98
0.61463	34.98
0.63130	34.99
0.64797	35.00
0.66463	35.00
0.68130	35.00
0.69797	35.00
0.71463	34.99
0.73130	34.99
0.74797	34.98
0.76463	34.97
0.78130	34.97
0.79797	34.97
0.81463	34.97
0.83130	34.98
0.84797	34.99
0.86463	34.99
0.88130	34.98
0.89797	34.97
0.91463	34.97
0.93130	34.98
0.94797	34.99
0.96463	35.00
0.98130	35.01
0.99797	35.01
1.01463	35.01
1.03130	35.01
1.04797	35.00
1.06463	35.00
1.08130	34.99
1.09797	35.00
1.11463	35.00
1.13130	35.00
1.14797	34.99
1.16463	34.99
1.18130	34.99
1.19797	34.99
1.21463	34.99
1.23130	34.99
1.24797	34.99
1.26463	35.00
1.28130	35.00
1.29797	35.00
1.31463	35.00
1.33130	35.00
1.34797	35.00
1.36463	35.00
1.38130	35.00
1.39797	34.99
1.41463	35.01
1.43130	35.01
1.44797	35.01
1.46463	35.01
1.48130	35.02
1.49797	35.02
1.51463	35.02
1.53130	35.02
1.54797	35.02
1.56463	35.02
1.58130	35.01
1.59797	35.03
1.61463	35.12
1.63130	35.27
1.64797	35.49
1.66463	35.77
1.68130	36.13
1.69797	36.50
1.71463	36.84
1.73130	37.16
1.74797	37.47
1.76463	37.79
1.78130	38.15
1.79797	38.47
1.81463	38.82
1.83130	39.16
1.84797	39.47
1.86463	39.77
1.88130	40.12
1.89797	40.44
1.91463	40.78
1.93130	41.11
1.94797	41.43
1.96463	41.77
1.98130	42.07
1.99797	42.39
2.01463	42.71
2.03130	43.04
2.04797	43.37
2.06463	43.68
2.08130	44.01
2.09797	44.35
2.11463	44.67
2.13130	45.00
2.14797	45.32
2.16463	45.66
2.18130	45.98
2.19797	46.33
2.21463	46.66
2.23130	46.98
2.24797	47.32
2.26463	47.65
2.28130	47.99
2.29797	48.33
2.31463	48.65
2.33130	48.97
2.34797	49.26
2.36463	49.52
2.38130	49.67
2.39797	49.69
2.41463	49.69
2.43130	49.70
2.44797	49.70
2.46463	49.72
2.48130	49.73
2.49797	49.74
2.51463	49.76
2.53130	49.77
2.54797	49.78
2.56463	49.81
2.58130	49.81
2.59797	49.82
2.61463	49.83
2.63130	49.84
2.64797	49.84
2.66463	49.86
2.68130	49.88
2.69797	49.85
2.71463	49.84
2.73130	49.86
2.74797	49.86
2.76463	49.85
2.78130	49.86
2.79797	49.86
2.81463	49.87
2.83130	49.86
2.84797	49.88
2.86463	49.90
2.88130	49.93
2.89797	49.95
2.91463	49.97
2.93130	49.98
2.94797	49.99
2.96463	49.99
2.98130	49.99
2.99797	50.00
3.01463	50.01
3.03130	50.02
3.04797	50.02
3.06463	50.02
3.08130	50.03
3.09797	50.04
3.11463	50.05
3.13130	50.06
3.14797	50.06
3.16463	50.07
3.18130	50.09
3.19797	50.10
3.21463	50.11
3.23130	50.12
3.24797	50.10
3.26463	50.09
3.28130	50.09
3.29797	50.08
3.31463	50.05
3.33130	50.03
3.34797	50.02
3.36463	50.01
3.38130	50.00
3.39797	50.00
3.41463	49.99
3.43130	50.00
3.44797	50.01
3.46463	50.01
3.48130	50.02
3.49797	50.03
3.51463	50.03
3.53130	50.04
3.54797	50.04
3.56463	50.04
3.58130	50.03
3.59797	50.03
3.61463	50.03
3.63130	50.02
3.64797	50.02
3.66463	50.03
3.68130	50.03
3.69797	50.03
3.71463	50.04
3.73130	50.06
3.74797	50.07
3.76463	50.08
3.78130	50.09
3.79797	50.10
3.81463	50.09
3.83130	50.08
3.84797	50.07
3.86463	50.08
3.88130	50.08
3.89797	50.08
3.91463	50.07
3.93130	50.07
3.94797	50.05
3.96463	50.04
3.98130	50.04
3.99797	50.03

[Status Trace (Injection Unit Temperature)]
Interval(msec)	1000
# of Points	240
Start Time(min)	0.015
End Time(min)	3.998
Intensity Units	
Intensity Multiplier	1
R.Time (min)	Intensity
0.01463	99.98
0.03130	99.98
0.04797	99.98
0.06463	99.98
0.08130	99.98
0.09797	99.98
0.11463	99.98
0.13130	99.98
0.14797	99.98
0.16463	99.98
0.18130	99.99
0.19797	99.99
0.21463	99.98
0.23130	99.98
0.24797	99.98
0.26463	99.98
0.28130	99.98
0.29797	99.98
0.31463	99.98
0.33130	99.98
0.34797	99.98
0.36463	99.98
0.38130	99.98
0.39797	99.98
0.41463	99.98
0.43130	99.97
0.44797	99.98
0.46463	99.98
0.48130	99.98
0.49797	99.98
0.51463	99.98
0.53130	99.97
0.54797	99.98
0.56463	99.98
0.58130	99.97
0.59797	99.98
0.61463	99.98
0.63130	99.98
0.64797	99.98
0.66463	99.98
0.68130	99.97
0.69797	99.98
0.71463	99.98
0.73130	99.98
0.74797	99.97
0.76463	99.98
0.78130	99.98
0.79797	99.98
0.81463	99.98
0.83130	99.98
0.84797	99.98
0.86463	99.98
0.88130	99.98
0.89797	99.98
0.91463	99.98
0.93130	99.98
0.94797	99.98
0.96463	99.98
0.98130	99.98
0.99797	99.98
1.01463	99.98
1.03130	99.98
1.04797	99.98
1.06463	99.98
1.08130	99.98
1.09797	99.98
1.11463	99.98
1.13130	99.98
1.14797	99.98
1.16463	99.98
1.18130	99.98
1.19797	99.98
1.21463	99.99
1.23130	99.98
1.24797	99.98
1.26463	99.99
1.28130	99.99
1.29797	99.98
1.31463	99.98
1.33130	99.98
1.34797	99.98
1.36463	99.99
1.38130	99.98
1.39797	99.98
1.41463	99.97
1.43130	99.98
1.44797	99.98
1.46463	99.98
1.48130	99.98
1.49797	99.98
1.51463	99.98
1.53130	99.98
1.54797	99.98
1.56463	99.98
1.58130	99.98
1.59797	99.98
1.61463	99.98
1.63130	99.98
1.64797	99.98
1.66463	99.98
1.68130	99.98
1.69797	99.98
1.71463	99.98
1.73130	99.98
1.74797	99.98
1.76463	99.98
1.78130	99.98
1.79797	99.98
1.81463	99.98
1.83130	99.97
1.84797	99.98
1.86463	99.97
1.88130	99.97
1.89797	99.97
1.91463	99.97
1.93130	99.97
1.94797	99.98
1.96463	99.97
1.98130	99.97
1.99797	99.97
2.01463	99.97
2.03130	99.96
2.04797	99.96
2.06463	99.96
2.08130	99.96
2.09797	99.96
2.11463	99.96
2.13130	99.96
2.14797	99.96
2.16463	99.96
2.18130	99.96
2.19797	99.95
2.21463	99.96
2.23130	99.96
2.24797	99.96
2.26463	99.96
2.28130	99.95
2.29797	99.96
2.31463	99.96
2.33130	99.96
2.34797	99.96
2.36463	99.96
2.38130	99.96
2.39797	99.96
2.41463	99.96
2.43130	99.96
2.44797	99.96
2.46463	99.96
2.48130	99.96
2.49797	99.97
2.51463	99.96
2.53130	99.96
2.54797	99.97
2.56463	99.97
2.58130	99.97
2.59797	99.97
2.61463	99.97
2.63130	99.97
2.64797	99.98
2.66463	99.98
2.68130	99.98
2.69797	99.98
2.71463	99.99
2.73130	99.98
2.74797	99.98
2.76463	99.98
2.78130	99.99
2.79797	99.99
2.81463	99.99
2.83130	99.99
2.84797	99.99
2.86463	100.00
2.88130	100.00
2.89797	100.00
2.91463	100.00
2.93130	100.01
2.94797	99.99
2.96463	100.01
2.98130	100.00
2.99797	100.01
3.01463	100.01
3.03130	100.01
3.04797	100.01
3.06463	100.01
3.08130	100.01
3.09797	100.01
3.11463	100.02
3.13130	100.01
3.14797	100.02
3.16463	100.02
3.18130	100.02
3.19797	100.02
3.21463	100.02
3.23130	100.02
3.24797	100.02
3.26463	100.02
3.28130	100.03
3.29797	100.03
3.31463	100.03
3.33130	100.03
3.34797	100.03
3.36463	100.03
3.38130	100.03
3.39797	100.02
3.41463	100.03
3.43130	100.03
3.44797	100.03
3.46463	100.03
3.48130	100.03
3.49797	100.03
3.51463	100.03
3.53130	100.03
3.54797	100.03
3.56463	100.03
3.58130	100.04
3.59797	100.03
3.61463	100.03
3.63130	100.03
3.64797	100.04
3.66463	100.04
3.68130	100.04
3.69797	100.04
3.71463	100.03
3.73130	100.03
3.74797	100.03
3.76463	100.04
3.78130	100.04
3.79797	100.04
3.81463	100.04
3.83130	100.03
3.84797	100.03
3.86463	100.04
3.88130	100.04
3.89797	100.04
3.91463	100.04
3.93130	100.04
3.94797	100.04
3.96463	100.04
3.98130	100.04
3.99797	100.04

[Status Trace (Carrier Gas Pressure)]
Interval(msec)	1000
# of Points	240
Start Time(min)	0.015
End Time(min)	3.998
Intensity Units	
Intensity Multiplier	1
R.Time (min)	Intensity
0.01463	57.29
0.03130	55.67
0.04797	57.98
0.06463	59.86
0.08130	58.60
0.09797	57.98
0.11463	57.99
0.13130	58.01
0.14797	58.01
0.16463	58.00
0.18130	58.00
0.19797	58.00
0.21463	58.00
0.23130	58.00
0.24797	58.00
0.26463	58.00
0.28130	58.00
0.29797	58.00
0.31463	58.00
0.33130	58.00
0.34797	58.00
0.36463	58.00
0.38130	58.00
0.39797	58.00
0.41463	58.00
0.43130	58.00
0.44797	58.00
0.46463	58.00
0.48130	58.00
0.49797	58.00
0.51463	58.00
0.53130	58.00
0.54797	58.00
0.56463	58.00
0.58130	58.00
0.59797	58.00
0.61463	58.00
0.63130	58.00
0.64797	58.00
0.66463	58.00
0.68130	58.00
0.69797	58.00
0.71463	58.00
0.73130	58.00
0.74797	58.00
0.76463	58.00
0.78130	58.00
0.79797	58.00
0.81463	58.00
0.83130	58.00
0.84797	58.00
0.86463	58.00
0.88130	58.00
0.89797	58.00
0.91463	58.00
0.93130	58.00
0.94797	58.00
0.96463	58.00
0.98130	58.00
0.99797	58.00
1.01463	58.00
1.03130	58.00
1.04797	58.00
1.06463	58.00
1.08130	58.00
1.09797	58.00
1.11463	58.00
1.13130	58.00
1.14797	58.00
1.16463	58.00
1.18130	58.00
1.19797	58.00
1.21463	58.00
1.23130	58.00
1.24797	58.00
1.26463	58.00
1.28130	58.00
1.29797	58.00
1.31463	58.00
1.33130	58.00
1.34797	58.00
1.36463	58.00
1.38130	58.00
1.39797	58.00
1.41463	58.00
1.43130	58.00
1.44797	58.00
1.46463	58.00
1.48130	58.00
1.49797	58.00
1.51463	58.00
1.53130	58.00
1.54797	58.00
1.56463	58.00
1.58130	58.00
1.59797	58.00
1.61463	58.00
1.63130	58.00
1.64797	58.00
1.66463	58.00
1.68130	58.01
1.69797	58.00
1.71463	58.00
1.73130	58.00
1.74797	58.00
1.76463	58.00
1.78130	58.00
1.79797	58.00
1.81463	58.00
1.83130	58.00
1.84797	58.00
1.86463	58.00
1.88130	58.00
1.89797	58.00
1.91463	58.00
1.93130	58.00
1.94797	58.00
1.96463	58.00
1.98130	58.00
1.99797	58.00
2.01463	58.00
2.03130	58.00
2.04797	58.00
2.06463	58.00
2.08130	58.00
2.09797	58.00
2.11463	58.00
2.13130	58.00
2.14797	58.00
2.16463	58.00
2.18130	58.00
2.19797	58.00
2.21463	58.00
2.23130	58.00
2.24797	58.00
2.26463	58.00
2.28130	58.00
2.29797	58.00
2.31463	58.00
2.33130	58.00
2.34797	58.00
2.36463	58.00
2.38130	58.00
2.39797	57.99
2.41463	58.00
2.43130	58.00
2.44797	58.00
2.46463	58.00
2.48130	58.00
2.49797	58.00
2.51463	57.99
2.53130	57.99
2.54797	58.00
2.56463	58.00
2.58130	58.00
2.59797	58.00
2.61463	58.00
2.63130	58.00
2.64797	58.00
2.66463	58.00
2.68130	58.00
2.69797	58.00
2.71463	58.00
2.73130	58.00
2.74797	58.00
2.76463	58.00
2.78130	58.00
2.79797	58.00
2.81463	58.00
2.83130	58.00
2.84797	58.00
2.86463	58.00
2.88130	58.00
2.89797	58.00
2.91463	58.00
2.93130	58.00
2.94797	58.00
2.96463	58.00
2.98130	58.00
2.99797	58.00
3.01463	58.00
3.03130	58.00
3.04797	58.00
3.06463	58.00
3.08130	58.00
3.09797	58.00
3.11463	58.00
3.13130	58.00
3.14797	58.00
3.16463	58.00
3.18130	58.00
3.19797	58.00
3.21463	58.00
3.23130	58.00
3.24797	58.00
3.26463	58.00
3.28130	58.00
3.29797	58.00
3.31463	58.00
3.33130	58.00
3.34797	58.00
3.36463	58.00
3.38130	58.00
3.39797	58.00
3.41463	58.00
3.43130	58.00
3.44797	58.00
3.46463	58.00
3.48130	58.00
3.49797	58.00
3.51463	58.00
3.53130	58.00
3.54797	58.00
3.56463	58.00
3.58130	58.00
3.59797	58.00
3.61463	58.00
3.63130	58.00
3.64797	58.00
3.66463	58.00
3.68130	58.00
3.69797	58.00
3.71463	58.00
3.73130	58.00
3.74797	58.00
3.76463	58.00
3.78130	58.00
3.79797	58.00
3.81463	58.00
3.83130	58.00
3.84797	58.00
3.86463	58.00
3.88130	58.00
3.89797	58.00
3.91463	58.00
3.93130	58.00
3.94797	58.00
3.96463	58.00
3.98130	58.00
3.99797	58.00

[Status Trace (Carrier Gas Flow)]
Interval(msec)	1000
# of Points	240
Start Time(min)	0.015
End Time(min)	3.998
Intensity Units	
Intensity Multiplier	1
R.Time (min)	Intensity
0.01463	33.94
0.03130	34.53
0.04797	34.55
0.06463	34.51
0.08130	34.51
0.09797	34.52
0.11463	34.52
0.13130	34.52
0.14797	34.52
0.16463	34.52
0.18130	34.52
0.19797	34.52
0.21463	34.52
0.23130	34.52
0.24797	34.52
0.26463	34.52
0.28130	34.51
0.29797	34.52
0.31463	34.52
0.33130	34.52
0.34797	34.52
0.36463	34.52
0.38130	34.52
0.39797	34.52
0.41463	34.52
0.43130	34.52
0.44797	34.52
0.46463	34.52
0.48130	34.52
0.49797	34.52
0.51463	34.52
0.53130	34.52
0.54797	34.51
0.56463	34.52
0.58130	34.52
0.59797	34.52
0.61463	34.52
0.63130	34.52
0.64797	34.52
0.66463	34.52
0.68130	34.52
0.69797	34.51
0.71463	34.52
0.73130	34.51
0.74797	34.52
0.76463	34.52
0.78130	34.52
0.79797	34.52
0.81463	34.52
0.83130	34.52
0.84797	34.52
0.86463	34.51
0.88130	34.52
0.89797	34.52
0.91463	34.52
0.93130	34.52
0.94797	34.52
0.96463	34.52
0.98130	34.51
0.99797	34.51
1.01463	34.52
1.03130	34.52
1.04797	34.51
1.06463	34.52
1.08130	34.52
1.09797	34.52
1.11463	34.51
1.13130	34.52
1.14797	34.52
1.16463	34.52
1.18130	34.52
1.19797	34.51
1.21463	34.52
1.23130	34.52
1.24797	34.52
1.26463	34.51
1.28130	34.52
1.29797	34.52
1.31463	34.52
1.33130	34.52
1.34797	34.52
1.36463	34.52
1.38130	34.52
1.39797	34.52
1.41463	34.52
1.43130	34.52
1.44797	34.52
1.46463	34.52
1.48130	34.52
1.49797	34.51
1.51463	34.52
1.53130	34.51
1.54797	34.52
1.56463	34.52
1.58130	34.52
1.59797	34.52
1.61463	34.51
1.63130	34.52
1.64797	34.52
1.66463	34.52
1.68130	34.52
1.69797	34.52
1.71463	34.52
1.73130	34.52
1.74797	34.52
1.76463	34.52
1.78130	34.52
1.79797	34.52
1.81463	34.52
1.83130	34.52
1.84797	34.52
1.86463	34.52
1.88130	34.52
1.89797	34.52
1.91463	34.52
1.93130	34.52
1.94797	34.52
1.96463	34.52
1.98130	34.52
1.99797	34.52
2.01463	34.52
2.03130	34.52
2.04797	34.52
2.06463	34.52
2.08130	34.52
2.09797	34.52
2.11463	34.52
2.13130	34.52
2.14797	34.52
2.16463	34.52
2.18130	34.52
2.19797	34.52
2.21463	34.51
2.23130	34.52
2.24797	34.52
2.26463	34.52
2.28130	34.51
2.29797	34.52
2.31463	34.52
2.33130	34.52
2.34797	34.52
2.36463	34.52
2.38130	34.52
2.39797	34.52
2.41463	34.52
2.43130	34.52
2.44797	34.52
2.46463	34.52
2.48130	34.52
2.49797	34.52
2.51463	34.52
2.53130	34.52
2.54797	34.52
2.56463	34.52
2.58130	34.52
2.59797	34.52
2.61463	34.52
2.63130	34.52
2.64797	34.51
2.66463	34.52
2.68130	34.52
2.69797	34.52
2.71463	34.52
2.73130	34.52
2.74797	34.52
2.76463	34.52
2.78130	34.52
2.79797	34.52
2.81463	34.52
2.83130	34.52
2.84797	34.51
2.86463	34.52
2.88130	34.52
2.89797	34.52
2.91463	34.52
2.93130	34.52
2.94797	34.52
2.96463	34.52
2.98130	34.52
2.99797	34.52
3.01463	34.52
3.03130	34.52
3.04797	34.52
3.06463	34.52
3.08130	34.52
3.09797	34.52
3.11463	34.52
3.13130	34.52
3.14797	34.52
3.16463	34.52
3.18130	34.52
3.19797	34.52
3.21463	34.52
3.23130	34.52
3.24797	34.52
3.26463	34.52
3.28130	34.51
3.29797	34.52
3.31463	34.52
3.33130	34.52
3.34797	34.52
3.36463	34.52
3.38130	34.52
3.39797	34.52
3.41463	34.52
3.43130	34.52
3.44797	34.52
3.46463	34.52
3.48130	34.52
3.49797	34.52
3.51463	34.52
3.53130	34.52
3.54797	34.52
3.56463	34.52
3.58130	34.52
3.59797	34.52
3.61463	34.52
3.63130	34.52
3.64797	34.52
3.66463	34.52
3.68130	34.52
3.69797	34.52
3.71463	34.52
3.73130	34.52
3.74797	34.52
3.76463	34.51
3.78130	34.52
3.79797	34.52
3.81463	34.52
3.83130	34.52
3.84797	34.52
3.86463	34.52
3.88130	34.52
3.89797	34.52
3.91463	34.52
3.93130	34.52
3.94797	34.52
3.96463	34.52
3.98130	34.52
3.99797	34.53

[Status Trace (Column Flow)]
Interval(msec)	1000
# of Points	240
Start Time(min)	0.015
End Time(min)	3.998
Intensity Units	
Intensity Multiplier	1
R.Time (min)	Intensity
0.01463	5.45
0.03130	5.27
0.04797	5.53
0.06463	5.76
0.08130	5.61
0.09797	5.53
0.11463	5.54
0.13130	5.54
0.14797	5.54
0.16463	5.54
0.18130	5.54
0.19797	5.54
0.21463	5.54
0.23130	5.54
0.24797	5.54
0.26463	5.54
0.28130	5.54
0.29797	5.54
0.31463	5.54
0.33130	5.54
0.34797	5.54
0.36463	5.54
0.38130	5.54
0.39797	5.54
0.41463	5.54
0.43130	5.54
0.44797	5.54
0.46463	5.54
0.48130	5.54
0.49797	5.54
0.51463	5.54
0.53130	5.54
0.54797	5.54
0.56463	5.54
0.58130	5.54
0.59797	5.54
0.61463	5.54
0.63130	5.54
0.64797	5.54
0.66463	5.54
0.68130	5.54
0.69797	5.54
0.71463	5.54
0.73130	5.54
0.74797	5.54
0.76463	5.54
0.78130	5.54
0.79797	5.54
0.81463	5.54
0.83130	5.54
0.84797	5.54
0.86463	5.54
0.88130	5.54
0.89797	5.54
0.91463	5.54
0.93130	5.54
0.94797	5.54
0.96463	5.54
0.98130	5.54
0.99797	5.54
1.01463	5.54
1.03130	5.54
1.04797	5.54
1.06463	5.54
1.08130	5.54
1.09797	5.54
1.11463	5.54
1.13130	5.54
1.14797	5.54
1.16463	5.54
1.18130	5.54
1.19797	5.54
1.21463	5.54
1.23130	5.54
1.24797	5.54
1.26463	5.54
1.28130	5.54
1.29797	5.54
1.31463	5.54
1.33130	5.54
1.34797	5.54
1.36463	5.54
1.38130	5.54
1.39797	5.54
1.41463	5.54
1.43130	5.54
1.44797	5.54
1.46463	5.54
1.48130	5.54
1.49797	5.54
1.51463	5.54
1.53130	5.54
1.54797	5.54
1.56463	5.54
1.58130	5.54
1.59797	5.54
1.61463	5.53
1.63130	5.53
1.64797	5.52
1.66463	5.51
1.68130	5.50
1.69797	5.49
1.71463	5.48
1.73130	5.47
1.74797	5.46
1.76463	5.45
1.78130	5.44
1.79797	5.43
1.81463	5.42
1.83130	5.41
1.84797	5.40
1.86463	5.39
1.88130	5.38
1.89797	5.37
1.91463	5.36
1.93130	5.35
1.94797	5.34
1.96463	5.33
1.98130	5.32
1.99797	5.31
2.01463	5.30
2.03130	5.29
2.04797	5.28
2.06463	5.27
2.08130	5.26
2.09797	5.25
2.11463	5.24
2.13130	5.24
2.14797	5.23
2.16463	5.22
2.18130	5.21
2.19797	5.20
2.21463	5.19
2.23130	5.18
2.24797	5.17
2.26463	5.16
2.28130	5.15
2.29797	5.14
2.31463	5.13
2.33130	5.12
2.34797	5.11
2.36463	5.11
2.38130	5.10
2.39797	5.10
2.41463	5.10
2.43130	5.10
2.44797	5.10
2.46463	5.10
2.48130	5.10
2.49797	5.10
2.51463	5.10
2.53130	5.10
2.54797	5.10
2.56463	5.10
2.58130	5.10
2.59797	5.10
2.61463	5.10
2.63130	5.10
2.64797	5.10
2.66463	5.10
2.68130	5.10
2.69797	5.10
2.71463	5.10
2.73130	5.10
2.74797	5.10
2.76463	5.10
2.78130	5.10
2.79797	5.10
2.81463	5.10
2.83130	5.10
2.84797	5.10
2.86463	5.10
2.88130	5.10
2.89797	5.09
2.91463	5.09
2.93130	5.09
2.94797	5.09
2.96463	5.09
2.98130	5.09
2.99797	5.09
3.01463	5.09
3.03130	5.09
3.04797	5.09
3.06463	5.09
3.08130	5.09
3.09797	5.09
3.11463	5.09
3.13130	5.09
3.14797	5.09
3.16463	5.09
3.18130	5.09
3.19797	5.09
3.21463	5.09
3.23130	5.09
3.24797	5.09
3.26463	5.09
3.28130	5.09
3.29797	5.09
3.31463	5.09
3.33130	5.09
3.34797	5.09
3.36463	5.09
3.38130	5.09
3.39797	5.09
3.41463	5.09
3.43130	5.09
3.44797	5.09
3.46463	5.09
3.48130	5.09
3.49797	5.09
3.51463	5.09
3.53130	5.09
3.54797	5.09
3.56463	5.09
3.58130	5.09
3.59797	5.09
3.61463	5.09
3.63130	5.09
3.64797	5.09
3.66463	5.09
3.68130	5.09
3.69797	5.09
3.71463	5.09
3.73130	5.09
3.74797	5.09
3.76463	5.09
3.78130	5.09
3.79797	5.09
3.81463	5.09
3.83130	5.09
3.84797	5.09
3.86463	5.09
3.88130	5.09
3.89797	5.09
3.91463	5.09
3.93130	5.09
3.94797	5.09
3.96463	5.09
3.98130	5.09
3.99797	5.09

[Status Trace (Linear Velocity)]
Interval(msec)	1000
# of Points	240
Start Time(min)	0.015
End Time(min)	3.998
Intensity Units	
Intensity Multiplier	1
R.Time (min)	Intensity
0.01463	38.55
0.03130	37.49
0.04797	39.00
0.06463	40.23
0.08130	39.41
0.09797	39.00
0.11463	39.01
0.13130	39.02
0.14797	39.02
0.16463	39.02
0.18130	39.01
0.19797	39.01
0.21463	39.02
0.23130	39.02
0.24797	39.02
0.26463	39.02
0.28130	39.02
0.29797	39.02
0.31463	39.02
0.33130	39.02
0.34797	39.02
0.36463	39.02
0.38130	39.02
0.39797	39.02
0.41463	39.02
0.43130	39.02
0.44797	39.02
0.46463	39.02
0.48130	39.02
0.49797	39.02
0.51463	39.02
0.53130	39.02
0.54797	39.02
0.56463	39.02
0.58130	39.02
0.59797	39.02
0.61463	39.02
0.63130	39.02
0.64797	39.02
0.66463	39.02
0.68130	39.02
0.69797	39.02
0.71463	39.02
0.73130	39.02
0.74797	39.02
0.76463	39.02
0.78130	39.02
0.79797	39.02
0.81463	39.02
0.83130	39.02
0.84797	39.02
0.86463	39.02
0.88130	39.02
0.89797	39.02
0.91463	39.02
0.93130	39.02
0.94797	39.02
0.96463	39.02
0.98130	39.02
0.99797	39.02
1.01463	39.02
1.03130	39.02
1.04797	39.02
1.06463	39.02
1.08130	39.02
1.09797	39.02
1.11463	39.02
1.13130	39.02
1.14797	39.02
1.16463	39.02
1.18130	39.02
1.19797	39.02
1.21463	39.02
1.23130	39.02
1.24797	39.02
1.26463	39.02
1.28130	39.02
1.29797	39.02
1.31463	39.02
1.33130	39.02
1.34797	39.02
1.36463	39.02
1.38130	39.02
1.39797	39.02
1.41463	39.02
1.43130	39.02
1.44797	39.02
1.46463	39.02
1.48130	39.02
1.49797	39.02
1.51463	39.02
1.53130	39.02
1.54797	39.02
1.56463	39.02
1.58130	39.02
1.59797	39.02
1.61463	39.01
1.63130	39.00
1.64797	38.98
1.66463	38.95
1.68130	38.92
1.69797	38.88
1.71463	38.84
1.73130	38.81
1.74797	38.78
1.76463	38.75
1.78130	38.72
1.79797	38.69
1.81463	38.66
1.83130	38.62
1.84797	38.59
1.86463	38.57
1.88130	38.54
1.89797	38.50
1.91463	38.47
1.93130	38.44
1.94797	38.41
1.96463	38.38
1.98130	38.35
1.99797	38.32
2.01463	38.29
2.03130	38.26
2.04797	38.23
2.06463	38.20
2.08130	38.18
2.09797	38.14
2.11463	38.11
2.13130	38.08
2.14797	38.05
2.16463	38.02
2.18130	38.00
2.19797	37.96
2.21463	37.93
2.23130	37.91
2.24797	37.88
2.26463	37.84
2.28130	37.82
2.29797	37.78
2.31463	37.76
2.33130	37.73
2.34797	37.70
2.36463	37.68
2.38130	37.66
2.39797	37.66
2.41463	37.66
2.43130	37.66
2.44797	37.66
2.46463	37.66
2.48130	37.66
2.49797	37.66
2.51463	37.65
2.53130	37.65
2.54797	37.66
2.56463	37.65
2.58130	37.65
2.59797	37.65
2.61463	37.65
2.63130	37.65
2.64797	37.65
2.66463	37.65
2.68130	37.65
2.69797	37.65
2.71463	37.65
2.73130	37.65
2.74797	37.65
2.76463	37.65
2.78130	37.65
2.79797	37.65
2.81463	37.65
2.83130	37.65
2.84797	37.65
2.86463	37.64
2.88130	37.64
2.89797	37.64
2.91463	37.64
2.93130	37.64
2.94797	37.64
2.96463	37.64
2.98130	37.64
2.99797	37.64
3.01463	37.64
3.03130	37.63
3.04797	37.63
3.06463	37.63
3.08130	37.63
3.09797	37.63
3.11463	37.63
3.13130	37.63
3.14797	37.63
3.16463	37.63
3.18130	37.63
3.19797	37.63
3.21463	37.63
3.23130	37.63
3.24797	37.63
3.26463	37.63
3.28130	37.63
3.29797	37.63
3.31463	37.63
3.33130	37.63
3.34797	37.63
3.36463	37.64
3.38130	37.64
3.39797	37.64
3.41463	37.64
3.43130	37.64
3.44797	37.64
3.46463	37.64
3.48130	37.63
3.49797	37.63
3.51463	37.63
3.53130	37.63
3.54797	37.63
3.56463	37.63
3.58130	37.63
3.59797	37.63
3.61463	37.63
3.63130	37.63
3.64797	37.63
3.66463	37.63
3.68130	37.63
3.69797	37.63
3.71463	37.63
3.73130	37.63
3.74797	37.63
3.76463	37.63
3.78130	37.63
3.79797	37.63
3.81463	37.63
3.83130	37.63
3.84797	37.63
3.86463	37.63
3.88130	37.63
3.89797	37.63
3.91463	37.63
3.93130	37.63
3.94797	37.63
3.96463	37.63
3.98130	37.63
3.99797	37.64

