[Header]
Application Name	LabSolutions
Version	5.110
Data File Name	C:\Users\User\Desktop\GC Analyses\Jack\Nachusa Grasslands Sampling\T3 Timepoint July 12th\T3_07122022_031.gcd
Output Date	3/14/2023
Output Time	3:43:31 PM

[File Information]
Type	Data File
Generated	3/13/2023 5:52:13 PM
Generated by	System Administrator
Modified	3/13/2023 5:59:01 PM
Modified by	System Administrator

[Sample Information]
Operator Name	System Administrator
Acquired	3/13/2023 5:54:59 PM
Sample Type	0:Unknown
Level	0
Sample Name	031
Sample ID	031
ISTD Amount1	1
ISTD Amount2	1
ISTD Amount3	1
ISTD Amount4	1
ISTD Amount5	1
ISTD Amount6	1
ISTD Amount7	1
ISTD Amount8	1
ISTD Amount9	1
ISTD Amount10	1
ISTD Amount11	1
ISTD Amount12	1
ISTD Amount13	1
ISTD Amount14	1
ISTD Amount15	1
ISTD Amount16	1
ISTD Amount17	1
ISTD Amount18	1
ISTD Amount19	1
ISTD Amount20	1
ISTD Amount21	1
ISTD Amount22	1
ISTD Amount23	1
ISTD Amount24	1
ISTD Amount25	1
ISTD Amount26	1
ISTD Amount27	1
ISTD Amount28	1
ISTD Amount29	1
ISTD Amount30	1
ISTD Amount31	1
ISTD Amount32	1
Sample Amount	1
Dilution Factor	1
Vial#	30
Injection Volume	1
Injection Count	1
Bar Code	

[Original Files]
Data File	C:\Users\User\Desktop\GC Analyses\Jack\Nachusa Grasslands Sampling\T3 Timepoint July 12th\T3_07122022_031.gcd
Method File	C:\LabSolutions\Data\GHG_4min_2022\ghg3_togas_w_acet_4 min_new_int.gcm
Batch File	C:\LabSolutions\Data\AutoSamplerTesting\T3_07122022.gcb
Report Format File	c:\LabSolutions\System\DEFAULT.lsr

[File Description]


[Configuration]
Instrument Name	C0B7VH3-Instrument1
Instrument #	1
Line #	1
# of Detectors	3
Detector ID	DET#1	DET#2	DET#3
Detector Name	FID	PTCD	ECD
# of Channels	1	1	1

[Peak Table(Ch1)]
# of Peaks	3
Peak#	R.Time	I.Time	F.Time	Area	Height	A/H	Conc.	Mark	ID#	Name	k'	Plate #	Plate Ht.	Tailing	Resolution	Sep.Factor	Area Ratio	Height Ratio	Conc. %	Norm Conc.
1	1.476	1.439	1.531	22158	10909	2.031	156.439	   	1	CO	0.000	9498	15.793	1.211	0.000	0.000	0	0	16.670	16.670
2	1.571	1.538	1.622	4083	2109	1.937	78.958	   	2	CH4	0.065	11882	12.625	1.136	1.613	0.000	0	0	8.414	8.414
3	1.996	1.952	2.312	2801363	1351744	2.072	703.066	   	3	CO2	0.353	17537	8.553	1.332	7.212	5.462	0	0	74.917	74.917

[Peak Table(Ch2)]
# of Peaks	0

[Peak Table(Ch3)]
# of Peaks	4
Peak#	R.Time	I.Time	F.Time	Area	Height	A/H	Conc.	Mark	ID#	Name	k'	Plate #	Plate Ht.	Tailing	Resolution	Sep.Factor	Area Ratio	Height Ratio	Conc. %	Norm Conc.
1	2.458	2.271	2.510	2130	578	3.685	0.000	   			0.000	10341	14.506	0.000	0.000	0.000	0	0	0.000	0.000
2	2.532	2.510	2.682	1417	318	4.454	0.000	 V 			0.030	5021	29.876	0.000	0.612	0.000	0	0	0.000	0.000
3	2.880	2.704	3.104	18192	4679	3.888	0.465	   	1	N2O	0.172	13187	11.375	1.528	2.864	5.750	0	0	100.000	100.000
4	3.309	3.111	3.962	17693	605	29.262	0.000	   	2	SF6	0.346	292	514.037	2.150	0.980	2.017	0	0	0.000	0.000

[Compound Results(Ch1)]
# of IDs	6
ID#	Name	R.Time	Area	Height	Conc.	Curve	3rd	2nd	1st	Constant	Area Ratio	Height Ratio	Conc. %	Norm Conc.
1	CO	1.476	22158	10909	156.439	Linear	0.000000e+00	0.000000e+00	1.416423e+002	0.000000e+00	0	0	16.670	16.670
2	CH4	1.571	4083	2109	78.958	Linear	0.000000e+00	0.000000e+00	5.171738e+001	0.000000e+00	0	0	8.414	8.414
3	CO2	1.996	2801363	1351744	703.066	Linear	0.000000e+00	0.000000e+00	3.984494e+003	0.000000e+00	0	0	74.917	74.917
4	Ethylene	0.000	0	0	0.000	Linear	0.000000e+00	0.000000e+00	0.000000e+00	0.000000e+00	0	0	0.000	0.000
5	Acetylene	0.000	0	0	0.000	Linear	0.000000e+00	0.000000e+00	0.000000e+00	0.000000e+00	0	0	0.000	0.000
6	Ethane	0.000	0	0	0.000	Linear	0.000000e+00	0.000000e+00	0.000000e+00	0.000000e+00	0	0	0.000	0.000

[Compound Results(Ch2)]
# of IDs	5
ID#	Name	R.Time	Area	Height	Conc.	Curve	3rd	2nd	1st	Constant	Area Ratio	Height Ratio	Conc. %	Norm Conc.
1	Hydrogen	0.000	0	0	0.000	Linear	0.000000e+00	0.000000e+00	0.000000e+00	0.000000e+00	0	0	0.000	0.000
2	Oxygen	0.000	0	0	0.000	Linear	0.000000e+00	0.000000e+00	0.000000e+00	0.000000e+00	0	0	0.000	0.000
3	Nitrogen	0.000	0	0	0.000	Linear	0.000000e+00	0.000000e+00	0.000000e+00	0.000000e+00	0	0	0.000	0.000
4	Methane	0.000	0	0	0.000	Linear	0.000000e+00	0.000000e+00	0.000000e+00	0.000000e+00	0	0	0.000	0.000
5	Carbon Monoxide	0.000	0	0	0.000	Linear	0.000000e+00	0.000000e+00	0.000000e+00	0.000000e+00	0	0	0.000	0.000

[Compound Results(Ch3)]
# of IDs	2
ID#	Name	R.Time	Area	Height	Conc.	Curve	3rd	2nd	1st	Constant	Area Ratio	Height Ratio	Conc. %	Norm Conc.
1	N2O	2.880	18192	4679	0.465	Linear	0.000000e+00	0.000000e+00	3.915173e+004	0.000000e+00	0	0	100.000	100.000
2	SF6	3.309	17693	605	0.000	Linear	0.000000e+00	0.000000e+00	0.000000e+00	0.000000e+00	0	0	0.000	0.000

[Group Results(Ch1)]
# of Groups	0

[Group Results(Ch2)]
# of Groups	0

[Group Results(Ch3)]
# of Groups	0

[Chromatogram (Ch1)]
Interval(msec)	220
# of Points	1091
Start Time(min)	0.002
End Time(min)	3.998
R.Time (min)	Intensity
0.00167	37
0.00533	37
0.00900	30
0.01267	19
0.01633	9
0.02000	3
0.02367	-2
0.02733	0
0.03100	6
0.03467	14
0.03833	16
0.04200	15
0.04567	14
0.04933	13
0.05300	15
0.05667	19
0.06033	23
0.06400	24
0.06767	26
0.07133	24
0.07500	21
0.07867	18
0.08233	19
0.08600	21
0.08967	24
0.09333	25
0.09700	24
0.10067	27
0.10433	33
0.10800	42
0.11167	48
0.11533	50
0.11900	52
0.12267	54
0.12633	58
0.13000	62
0.13367	61
0.13733	57
0.14100	52
0.14467	50
0.14833	53
0.15200	57
0.15567	60
0.15933	62
0.16300	67
0.16667	72
0.17033	76
0.17400	85
0.17767	93
0.18133	94
0.18500	93
0.18867	93
0.19233	94
0.19600	95
0.19967	90
0.20333	80
0.20700	73
0.21067	69
0.21433	68
0.21800	70
0.22167	72
0.22533	72
0.22900	65
0.23267	55
0.23633	49
0.24000	50
0.24367	52
0.24733	50
0.25100	46
0.25467	39
0.25833	36
0.26200	35
0.26567	32
0.26933	28
0.27300	26
0.27667	26
0.28033	24
0.28400	20
0.28767	18
0.29133	18
0.29500	19
0.29867	20
0.30233	23
0.30600	29
0.30967	34
0.31333	36
0.31700	33
0.32067	26
0.32433	20
0.32800	17
0.33167	17
0.33533	24
0.33900	34
0.34267	42
0.34633	44
0.35000	42
0.35367	40
0.35733	42
0.36100	45
0.36467	48
0.36833	45
0.37200	41
0.37567	39
0.37933	38
0.38300	37
0.38667	36
0.39033	35
0.39400	34
0.39767	36
0.40133	37
0.40500	35
0.40867	32
0.41233	26
0.41600	27
0.41967	31
0.42333	36
0.42700	40
0.43067	38
0.43433	32
0.43800	26
0.44167	24
0.44533	24
0.44900	21
0.45267	20
0.45633	24
0.46000	36
0.46367	53
0.46733	65
0.47100	66
0.47467	60
0.47833	48
0.48200	35
0.48567	23
0.48933	16
0.49300	11
0.49667	7
0.50033	4
0.50400	6
0.50767	9
0.51133	10
0.51500	11
0.51867	14
0.52233	19
0.52600	25
0.52967	32
0.53333	36
0.53700	40
0.54067	44
0.54433	43
0.54800	41
0.55167	40
0.55533	40
0.55900	41
0.56267	42
0.56633	38
0.57000	33
0.57367	26
0.57733	19
0.58100	15
0.58467	12
0.58833	15
0.59200	25
0.59567	35
0.59933	40
0.60300	38
0.60667	36
0.61033	36
0.61400	35
0.61767	31
0.62133	25
0.62500	23
0.62867	24
0.63233	30
0.63600	38
0.63967	41
0.64333	40
0.64700	42
0.65067	44
0.65433	51
0.65800	59
0.66167	64
0.66533	63
0.66900	56
0.67267	50
0.67633	46
0.68000	43
0.68367	43
0.68733	41
0.69100	39
0.69467	37
0.69833	34
0.70200	29
0.70567	24
0.70933	21
0.71300	17
0.71667	13
0.72033	14
0.72400	17
0.72767	20
0.73133	24
0.73500	25
0.73867	26
0.74233	32
0.74600	40
0.74967	46
0.75333	53
0.75700	55
0.76067	53
0.76433	50
0.76800	45
0.77167	43
0.77533	43
0.77900	40
0.78267	39
0.78633	40
0.79000	42
0.79367	46
0.79733	53
0.80100	59
0.80467	62
0.80833	64
0.81200	63
0.81567	61
0.81933	57
0.82300	51
0.82667	44
0.83033	37
0.83400	30
0.83767	27
0.84133	28
0.84500	36
0.84867	48
0.85233	53
0.85600	48
0.85967	40
0.86333	33
0.86700	29
0.87067	31
0.87433	38
0.87800	44
0.88167	46
0.88533	43
0.88900	42
0.89267	39
0.89633	32
0.90000	25
0.90367	22
0.90733	22
0.91100	24
0.91467	27
0.91833	32
0.92200	40
0.92567	48
0.92933	53
0.93300	56
0.93667	55
0.94033	53
0.94400	51
0.94767	49
0.95133	50
0.95500	52
0.95867	49
0.96233	45
0.96600	43
0.96967	38
0.97333	31
0.97700	27
0.98067	28
0.98433	28
0.98800	31
0.99167	39
0.99533	50
0.99900	57
1.00267	57
1.00633	52
1.01000	46
1.01367	36
1.01733	26
1.02100	19
1.02467	16
1.02833	20
1.03200	26
1.03567	34
1.03933	41
1.04300	47
1.04667	50
1.05033	53
1.05400	51
1.05767	47
1.06133	45
1.06500	42
1.06867	36
1.07233	27
1.07600	17
1.07967	12
1.08333	14
1.08700	20
1.09067	29
1.09433	37
1.09800	44
1.10167	44
1.10533	41
1.10900	37
1.11267	34
1.11633	32
1.12000	32
1.12367	33
1.12733	32
1.13100	31
1.13467	27
1.13833	24
1.14200	21
1.14567	21
1.14933	22
1.15300	21
1.15667	21
1.16033	20
1.16400	22
1.16767	21
1.17133	14
1.17500	7
1.17867	2
1.18233	-2
1.18600	-5
1.18967	-7
1.19333	-5
1.19700	2
1.20067	10
1.20433	15
1.20800	17
1.21167	20
1.21533	28
1.21900	34
1.22267	32
1.22633	25
1.23000	22
1.23367	26
1.23733	32
1.24100	31
1.24467	24
1.24833	16
1.25200	19
1.25567	25
1.25933	26
1.26300	22
1.26667	13
1.27033	3
1.27400	-4
1.27767	-7
1.28133	-10
1.28500	-9
1.28867	-8
1.29233	-9
1.29600	-11
1.29967	-11
1.30333	-13
1.30700	-13
1.31067	-5
1.31433	4
1.31800	7
1.32167	7
1.32533	5
1.32900	2
1.33267	-1
1.33633	-4
1.34000	-7
1.34367	-9
1.34733	-6
1.35100	-0
1.35467	2
1.35833	7
1.36200	16
1.36567	21
1.36933	19
1.37300	10
1.37667	5
1.38033	4
1.38400	4
1.38767	5
1.39133	6
1.39500	4
1.39867	1
1.40233	2
1.40600	5
1.40967	8
1.41333	9
1.41700	7
1.42067	6
1.42433	2
1.42800	-8
1.43167	-20
1.43533	-30
1.43900	-27
1.44267	13
1.44633	186
1.45000	671
1.45367	1691
1.45733	3383
1.46100	5474
1.46467	7502
1.46833	9153
1.47200	10288
1.47567	10817
1.47933	10638
1.48300	9737
1.48667	8281
1.49033	6571
1.49400	4902
1.49767	3469
1.50133	2341
1.50500	1509
1.50867	920
1.51233	511
1.51600	230
1.51967	43
1.52333	-76
1.52700	-149
1.53067	-191
1.53433	-211
1.53800	-209
1.54167	-162
1.54533	-22
1.54900	257
1.55267	648
1.55633	1069
1.56000	1444
1.56367	1732
1.56733	1905
1.57100	1935
1.57467	1803
1.57833	1533
1.58200	1189
1.58567	846
1.58933	556
1.59300	336
1.59667	178
1.60033	71
1.60400	-1
1.60767	-52
1.61133	-87
1.61500	-105
1.61867	-113
1.62233	-119
1.62600	-121
1.62967	-117
1.63333	-112
1.63700	-110
1.64067	-115
1.64433	-123
1.64800	-126
1.65167	-123
1.65533	-117
1.65900	-109
1.66267	-105
1.66633	-101
1.67000	-100
1.67367	-100
1.67733	-99
1.68100	-101
1.68467	-103
1.68833	-104
1.69200	-106
1.69567	-107
1.69933	-106
1.70300	-103
1.70667	-100
1.71033	-99
1.71400	-101
1.71767	-103
1.72133	-106
1.72500	-107
1.72867	-102
1.73233	-100
1.73600	-101
1.73967	-100
1.74333	-103
1.74700	-107
1.75067	-107
1.75433	-103
1.75800	-96
1.76167	-89
1.76533	-83
1.76900	-77
1.77267	-76
1.77633	-75
1.78000	-73
1.78367	-71
1.78733	-68
1.79100	-69
1.79467	-70
1.79833	-70
1.80200	-66
1.80567	-57
1.80933	-50
1.81300	-45
1.81667	-37
1.82033	-29
1.82400	-28
1.82767	-31
1.83133	-40
1.83500	-50
1.83867	-55
1.84233	-62
1.84600	-75
1.84967	-90
1.85333	-95
1.85700	-88
1.86067	-77
1.86433	-71
1.86800	-70
1.87167	-62
1.87533	-53
1.87900	-48
1.88267	-47
1.88633	-52
1.89000	-57
1.89367	-57
1.89733	-56
1.90100	-60
1.90467	-64
1.90833	-69
1.91200	-72
1.91567	-70
1.91933	-59
1.92300	-50
1.92667	-49
1.93033	-53
1.93400	-54
1.93767	-54
1.94133	-50
1.94500	-44
1.94867	-42
1.95233	-34
1.95600	78
1.95967	866
1.96333	4889
1.96700	20280
1.97067	65272
1.97433	166295
1.97800	341638
1.98167	580895
1.98533	844696
1.98900	1085017
1.99267	1262539
1.99633	1351755
2.00000	1343443
2.00367	1245573
2.00733	1081638
2.01100	884133
2.01467	685153
2.01833	508050
2.02200	364207
2.02567	255001
2.02933	176020
2.03300	120793
2.03667	83028
2.04033	57551
2.04400	40470
2.04767	29020
2.05133	21304
2.05500	16048
2.05867	12411
2.06233	9845
2.06600	7993
2.06967	6628
2.07333	5603
2.07700	4819
2.08067	4202
2.08433	3707
2.08800	3309
2.09167	2982
2.09533	2706
2.09900	2471
2.10267	2275
2.10633	2104
2.11000	1953
2.11367	1817
2.11733	1690
2.12100	1574
2.12467	1471
2.12833	1380
2.13200	1298
2.13567	1228
2.13933	1168
2.14300	1120
2.14667	1074
2.15033	1028
2.15400	984
2.15767	948
2.16133	918
2.16500	891
2.16867	864
2.17233	835
2.17600	809
2.17967	786
2.18333	758
2.18700	727
2.19067	695
2.19433	668
2.19800	643
2.20167	625
2.20533	611
2.20900	596
2.21267	582
2.21633	568
2.22000	555
2.22367	541
2.22733	528
2.23100	518
2.23467	511
2.23833	499
2.24200	483
2.24567	469
2.24933	457
2.25300	444
2.25667	428
2.26033	420
2.26400	419
2.26767	418
2.27133	413
2.27500	409
2.27867	402
2.28233	391
2.28600	376
2.28967	362
2.29333	351
2.29700	346
2.30067	342
2.30433	336
2.30800	330
2.31167	328
2.31533	329
2.31900	331
2.32267	335
2.32633	337
2.33000	334
2.33367	327
2.33733	316
2.34100	304
2.34467	296
2.34833	291
2.35200	290
2.35567	290
2.35933	283
2.36300	273
2.36667	263
2.37033	254
2.37400	245
2.37767	240
2.38133	239
2.38500	240
2.38867	243
2.39233	246
2.39600	249
2.39967	257
2.40333	263
2.40700	264
2.41067	267
2.41433	275
2.41800	279
2.42167	279
2.42533	273
2.42900	266
2.43267	261
2.43633	257
2.44000	253
2.44367	246
2.44733	240
2.45100	235
2.45467	234
2.45833	235
2.46200	237
2.46567	241
2.46933	245
2.47300	242
2.47667	232
2.48033	223
2.48400	212
2.48767	202
2.49133	195
2.49500	196
2.49867	202
2.50233	207
2.50600	210
2.50967	212
2.51333	216
2.51700	221
2.52067	227
2.52433	231
2.52800	231
2.53167	229
2.53533	229
2.53900	229
2.54267	223
2.54633	219
2.55000	221
2.55367	229
2.55733	238
2.56100	245
2.56467	251
2.56833	256
2.57200	258
2.57567	260
2.57933	261
2.58300	259
2.58667	259
2.59033	257
2.59400	250
2.59767	241
2.60133	234
2.60500	227
2.60867	223
2.61233	224
2.61600	224
2.61967	226
2.62333	229
2.62700	231
2.63067	235
2.63433	240
2.63800	248
2.64167	255
2.64533	257
2.64900	263
2.65267	273
2.65633	281
2.66000	281
2.66367	276
2.66733	270
2.67100	255
2.67467	237
2.67833	227
2.68200	230
2.68567	235
2.68933	239
2.69300	238
2.69667	230
2.70033	222
2.70400	219
2.70767	217
2.71133	211
2.71500	207
2.71867	205
2.72233	205
2.72600	212
2.72967	225
2.73333	235
2.73700	240
2.74067	241
2.74433	243
2.74800	247
2.75167	249
2.75533	248
2.75900	247
2.76267	248
2.76633	254
2.77000	265
2.77367	272
2.77733	267
2.78100	256
2.78467	245
2.78833	235
2.79200	232
2.79567	236
2.79933	238
2.80300	239
2.80667	239
2.81033	237
2.81400	235
2.81767	232
2.82133	231
2.82500	229
2.82867	229
2.83233	228
2.83600	229
2.83967	230
2.84333	228
2.84700	224
2.85067	224
2.85433	228
2.85800	233
2.86167	237
2.86533	240
2.86900	239
2.87267	236
2.87633	234
2.88000	233
2.88367	236
2.88733	239
2.89100	241
2.89467	240
2.89833	237
2.90200	234
2.90567	232
2.90933	229
2.91300	224
2.91667	223
2.92033	228
2.92400	232
2.92767	225
2.93133	215
2.93500	207
2.93867	202
2.94233	203
2.94600	205
2.94967	206
2.95333	206
2.95700	213
2.96067	223
2.96433	232
2.96800	234
2.97167	230
2.97533	230
2.97900	229
2.98267	228
2.98633	227
2.99000	229
2.99367	229
2.99733	231
3.00100	237
3.00467	245
3.00833	252
3.01200	260
3.01567	262
3.01933	256
3.02300	246
3.02667	239
3.03033	231
3.03400	225
3.03767	219
3.04133	218
3.04500	217
3.04867	216
3.05233	217
3.05600	217
3.05967	217
3.06333	215
3.06700	210
3.07067	205
3.07433	198
3.07800	189
3.08167	183
3.08533	182
3.08900	184
3.09267	191
3.09633	202
3.10000	211
3.10367	214
3.10733	209
3.11100	206
3.11467	204
3.11833	200
3.12200	200
3.12567	206
3.12933	212
3.13300	214
3.13667	212
3.14033	211
3.14400	211
3.14767	215
3.15133	218
3.15500	217
3.15867	215
3.16233	212
3.16600	212
3.16967	214
3.17333	220
3.17700	228
3.18067	227
3.18433	221
3.18800	210
3.19167	196
3.19533	186
3.19900	181
3.20267	177
3.20633	172
3.21000	174
3.21367	178
3.21733	176
3.22100	168
3.22467	161
3.22833	157
3.23200	156
3.23567	158
3.23933	165
3.24300	172
3.24667	179
3.25033	184
3.25400	187
3.25767	190
3.26133	193
3.26500	192
3.26867	192
3.27233	194
3.27600	194
3.27967	188
3.28333	181
3.28700	177
3.29067	170
3.29433	165
3.29800	167
3.30167	175
3.30533	183
3.30900	186
3.31267	185
3.31633	183
3.32000	181
3.32367	180
3.32733	180
3.33100	178
3.33467	179
3.33833	178
3.34200	175
3.34567	175
3.34933	180
3.35300	192
3.35667	200
3.36033	204
3.36400	199
3.36767	186
3.37133	173
3.37500	162
3.37867	159
3.38233	160
3.38600	155
3.38967	147
3.39333	142
3.39700	142
3.40067	142
3.40433	145
3.40800	151
3.41167	159
3.41533	164
3.41900	167
3.42267	168
3.42633	166
3.43000	163
3.43367	159
3.43733	157
3.44100	152
3.44467	145
3.44833	141
3.45200	139
3.45567	138
3.45933	136
3.46300	136
3.46667	133
3.47033	133
3.47400	139
3.47767	148
3.48133	154
3.48500	162
3.48867	170
3.49233	174
3.49600	174
3.49967	172
3.50333	171
3.50700	168
3.51067	165
3.51433	160
3.51800	153
3.52167	146
3.52533	140
3.52900	135
3.53267	133
3.53633	130
3.54000	125
3.54367	122
3.54733	126
3.55100	133
3.55467	141
3.55833	149
3.56200	156
3.56567	160
3.56933	161
3.57300	161
3.57667	157
3.58033	150
3.58400	142
3.58767	139
3.59133	141
3.59500	144
3.59867	144
3.60233	147
3.60600	149
3.60967	150
3.61333	149
3.61700	148
3.62067	149
3.62433	157
3.62800	161
3.63167	161
3.63533	155
3.63900	148
3.64267	142
3.64633	141
3.65000	142
3.65367	145
3.65733	147
3.66100	149
3.66467	151
3.66833	152
3.67200	148
3.67567	140
3.67933	129
3.68300	116
3.68667	105
3.69033	102
3.69400	104
3.69767	109
3.70133	116
3.70500	124
3.70867	131
3.71233	138
3.71600	143
3.71967	144
3.72333	145
3.72700	146
3.73067	144
3.73433	143
3.73800	142
3.74167	138
3.74533	134
3.74900	136
3.75267	141
3.75633	140
3.76000	133
3.76367	122
3.76733	108
3.77100	100
3.77467	98
3.77833	100
3.78200	101
3.78567	104
3.78933	108
3.79300	111
3.79667	116
3.80033	118
3.80400	120
3.80767	118
3.81133	114
3.81500	110
3.81867	106
3.82233	109
3.82600	116
3.82967	120
3.83333	120
3.83700	118
3.84067	115
3.84433	112
3.84800	109
3.85167	110
3.85533	115
3.85900	125
3.86267	133
3.86633	135
3.87000	133
3.87367	135
3.87733	139
3.88100	144
3.88467	143
3.88833	138
3.89200	134
3.89567	131
3.89933	126
3.90300	122
3.90667	116
3.91033	111
3.91400	106
3.91767	105
3.92133	105
3.92500	105
3.92867	103
3.93233	98
3.93600	96
3.93967	95
3.94333	95
3.94700	99
3.95067	105
3.95433	111
3.95800	120
3.96167	123
3.96533	122
3.96900	121
3.97267	118
3.97633	110
3.98000	100
3.98367	86
3.98733	70
3.99100	59
3.99467	59
3.99833	59

[Chromatogram (Ch2)]
Interval(msec)	220
# of Points	1091
Start Time(min)	0.002
End Time(min)	3.998
R.Time (min)	Intensity
0.00167	-2
0.00533	-3
0.00900	-3
0.01267	-4
0.01633	-4
0.02000	-4
0.02367	-4
0.02733	-4
0.03100	-4
0.03467	-3
0.03833	-3
0.04200	-3
0.04567	-3
0.04933	-3
0.05300	-3
0.05667	-2
0.06033	-2
0.06400	-1
0.06767	-1
0.07133	-1
0.07500	-0
0.07867	-0
0.08233	-0
0.08600	-0
0.08967	-0
0.09333	-0
0.09700	0
0.10067	0
0.10433	0
0.10800	0
0.11167	-0
0.11533	-0
0.11900	-0
0.12267	-0
0.12633	-1
0.13000	-1
0.13367	-2
0.13733	-2
0.14100	-3
0.14467	-3
0.14833	-4
0.15200	-4
0.15567	-4
0.15933	-4
0.16300	-4
0.16667	-4
0.17033	-4
0.17400	-4
0.17767	-4
0.18133	-4
0.18500	-3
0.18867	-3
0.19233	-3
0.19600	-3
0.19967	-3
0.20333	-3
0.20700	-3
0.21067	-3
0.21433	-3
0.21800	-3
0.22167	-3
0.22533	-3
0.22900	-3
0.23267	-2
0.23633	-2
0.24000	-2
0.24367	-2
0.24733	-2
0.25100	-2
0.25467	-2
0.25833	-2
0.26200	-1
0.26567	-1
0.26933	-1
0.27300	-0
0.27667	-0
0.28033	-0
0.28400	0
0.28767	0
0.29133	0
0.29500	0
0.29867	0
0.30233	0
0.30600	0
0.30967	0
0.31333	0
0.31700	0
0.32067	-0
0.32433	-0
0.32800	-0
0.33167	-1
0.33533	-1
0.33900	-1
0.34267	-2
0.34633	-2
0.35000	-2
0.35367	-2
0.35733	-2
0.36100	-2
0.36467	-2
0.36833	-2
0.37200	-2
0.37567	-3
0.37933	-3
0.38300	-3
0.38667	-3
0.39033	-3
0.39400	-3
0.39767	-3
0.40133	-3
0.40500	-3
0.40867	-3
0.41233	-3
0.41600	-3
0.41967	-3
0.42333	-4
0.42700	-3
0.43067	-3
0.43433	-3
0.43800	-3
0.44167	-3
0.44533	-2
0.44900	-2
0.45267	-1
0.45633	-1
0.46000	-0
0.46367	-0
0.46733	0
0.47100	0
0.47467	0
0.47833	1
0.48200	1
0.48567	0
0.48933	0
0.49300	0
0.49667	-0
0.50033	-1
0.50400	-1
0.50767	-1
0.51133	-1
0.51500	-1
0.51867	-2
0.52233	-2
0.52600	-2
0.52967	-2
0.53333	-2
0.53700	-2
0.54067	-2
0.54433	-2
0.54800	-2
0.55167	-2
0.55533	-2
0.55900	-2
0.56267	-2
0.56633	-2
0.57000	-2
0.57367	-2
0.57733	-2
0.58100	-2
0.58467	-2
0.58833	-2
0.59200	-2
0.59567	-2
0.59933	-2
0.60300	-3
0.60667	-3
0.61033	-3
0.61400	-2
0.61767	-2
0.62133	-2
0.62500	-2
0.62867	-2
0.63233	-2
0.63600	-2
0.63967	-2
0.64333	-2
0.64700	-2
0.65067	-2
0.65433	-3
0.65800	-3
0.66167	-3
0.66533	-3
0.66900	-3
0.67267	-3
0.67633	-3
0.68000	-3
0.68367	-3
0.68733	-3
0.69100	-4
0.69467	-4
0.69833	-4
0.70200	-4
0.70567	-4
0.70933	-4
0.71300	-4
0.71667	-4
0.72033	-4
0.72400	-4
0.72767	-4
0.73133	-4
0.73500	-4
0.73867	-4
0.74233	-4
0.74600	-4
0.74967	-4
0.75333	-4
0.75700	-3
0.76067	-3
0.76433	-3
0.76800	-3
0.77167	-3
0.77533	-3
0.77900	-3
0.78267	-3
0.78633	-3
0.79000	-2
0.79367	-2
0.79733	-2
0.80100	-2
0.80467	-2
0.80833	-2
0.81200	-2
0.81567	-2
0.81933	-2
0.82300	-2
0.82667	-2
0.83033	-2
0.83400	-2
0.83767	-2
0.84133	-2
0.84500	-2
0.84867	-2
0.85233	-2
0.85600	-2
0.85967	-3
0.86333	-3
0.86700	-3
0.87067	-3
0.87433	-2
0.87800	-2
0.88167	-2
0.88533	-2
0.88900	-1
0.89267	-1
0.89633	-1
0.90000	-2
0.90367	-2
0.90733	-2
0.91100	-2
0.91467	-2
0.91833	-3
0.92200	-3
0.92567	-3
0.92933	-3
0.93300	-3
0.93667	-3
0.94033	-3
0.94400	-3
0.94767	-3
0.95133	-3
0.95500	-3
0.95867	-3
0.96233	-4
0.96600	-4
0.96967	-5
0.97333	-5
0.97700	-4
0.98067	-4
0.98433	-4
0.98800	-4
0.99167	-4
0.99533	-4
0.99900	-4
1.00267	-4
1.00633	-3
1.01000	-3
1.01367	-3
1.01733	-3
1.02100	-3
1.02467	-3
1.02833	-3
1.03200	-4
1.03567	-4
1.03933	-4
1.04300	-4
1.04667	-4
1.05033	-4
1.05400	-4
1.05767	-4
1.06133	-3
1.06500	-3
1.06867	-3
1.07233	-3
1.07600	-3
1.07967	-3
1.08333	-3
1.08700	-3
1.09067	-3
1.09433	-3
1.09800	-3
1.10167	-3
1.10533	-3
1.10900	-3
1.11267	-3
1.11633	-3
1.12000	-3
1.12367	-3
1.12733	-4
1.13100	-4
1.13467	-4
1.13833	-4
1.14200	-4
1.14567	-4
1.14933	-4
1.15300	-4
1.15667	-4
1.16033	-4
1.16400	-4
1.16767	-4
1.17133	-5
1.17500	-5
1.17867	-5
1.18233	-5
1.18600	-5
1.18967	-5
1.19333	-5
1.19700	-5
1.20067	-5
1.20433	-5
1.20800	-5
1.21167	-5
1.21533	-5
1.21900	-5
1.22267	-5
1.22633	-4
1.23000	-4
1.23367	-4
1.23733	-4
1.24100	-4
1.24467	-4
1.24833	-4
1.25200	-4
1.25567	-5
1.25933	-5
1.26300	-5
1.26667	-5
1.27033	-5
1.27400	-4
1.27767	-4
1.28133	-4
1.28500	-4
1.28867	-4
1.29233	-4
1.29600	-4
1.29967	-4
1.30333	-4
1.30700	-3
1.31067	-3
1.31433	-3
1.31800	-3
1.32167	-3
1.32533	-3
1.32900	-3
1.33267	-4
1.33633	-4
1.34000	-4
1.34367	-5
1.34733	-5
1.35100	-5
1.35467	-5
1.35833	-6
1.36200	-6
1.36567	-6
1.36933	-6
1.37300	-6
1.37667	-6
1.38033	-6
1.38400	-6
1.38767	-6
1.39133	-6
1.39500	-6
1.39867	-6
1.40233	-6
1.40600	-5
1.40967	-5
1.41333	-5
1.41700	-5
1.42067	-5
1.42433	-5
1.42800	-4
1.43167	-4
1.43533	-4
1.43900	-3
1.44267	-3
1.44633	-3
1.45000	-3
1.45367	-3
1.45733	-3
1.46100	-4
1.46467	-4
1.46833	-4
1.47200	-5
1.47567	-5
1.47933	-5
1.48300	-5
1.48667	-5
1.49033	-5
1.49400	-4
1.49767	-4
1.50133	-4
1.50500	-4
1.50867	-4
1.51233	-4
1.51600	-4
1.51967	-4
1.52333	-4
1.52700	-4
1.53067	-4
1.53433	-4
1.53800	-5
1.54167	-5
1.54533	-4
1.54900	-4
1.55267	-4
1.55633	-4
1.56000	-4
1.56367	-4
1.56733	-4
1.57100	-4
1.57467	-4
1.57833	-4
1.58200	-4
1.58567	-4
1.58933	-4
1.59300	-4
1.59667	-5
1.60033	-6
1.60400	-7
1.60767	-9
1.61133	-10
1.61500	-12
1.61867	-15
1.62233	-18
1.62600	-21
1.62967	-24
1.63333	-27
1.63700	-30
1.64067	-34
1.64433	-37
1.64800	-41
1.65167	-45
1.65533	-48
1.65900	-52
1.66267	-56
1.66633	-60
1.67000	-64
1.67367	-69
1.67733	-74
1.68100	-79
1.68467	-84
1.68833	-88
1.69200	-92
1.69567	-96
1.69933	-99
1.70300	-101
1.70667	-103
1.71033	-105
1.71400	-106
1.71767	-107
1.72133	-107
1.72500	-108
1.72867	-108
1.73233	-108
1.73600	-107
1.73967	-107
1.74333	-107
1.74700	-107
1.75067	-108
1.75433	-109
1.75800	-110
1.76167	-111
1.76533	-112
1.76900	-113
1.77267	-113
1.77633	-114
1.78000	-114
1.78367	-114
1.78733	-115
1.79100	-115
1.79467	-115
1.79833	-116
1.80200	-116
1.80567	-116
1.80933	-116
1.81300	-116
1.81667	-115
1.82033	-114
1.82400	-114
1.82767	-113
1.83133	-114
1.83500	-114
1.83867	-115
1.84233	-115
1.84600	-116
1.84967	-116
1.85333	-116
1.85700	-116
1.86067	-115
1.86433	-114
1.86800	-114
1.87167	-114
1.87533	-114
1.87900	-114
1.88267	-114
1.88633	-115
1.89000	-115
1.89367	-115
1.89733	-114
1.90100	-114
1.90467	-114
1.90833	-114
1.91200	-114
1.91567	-115
1.91933	-115
1.92300	-115
1.92667	-115
1.93033	-115
1.93400	-114
1.93767	-114
1.94133	-113
1.94500	-113
1.94867	-113
1.95233	-113
1.95600	-113
1.95967	-113
1.96333	-112
1.96700	-112
1.97067	-112
1.97433	-111
1.97800	-111
1.98167	-110
1.98533	-110
1.98900	-109
1.99267	-109
1.99633	-109
2.00000	-109
2.00367	-109
2.00733	-110
2.01100	-110
2.01467	-110
2.01833	-110
2.02200	-110
2.02567	-110
2.02933	-110
2.03300	-110
2.03667	-109
2.04033	-109
2.04400	-108
2.04767	-107
2.05133	-105
2.05500	-105
2.05867	-104
2.06233	-104
2.06600	-103
2.06967	-103
2.07333	-103
2.07700	-103
2.08067	-103
2.08433	-103
2.08800	-103
2.09167	-102
2.09533	-102
2.09900	-102
2.10267	-102
2.10633	-102
2.11000	-102
2.11367	-102
2.11733	-102
2.12100	-102
2.12467	-102
2.12833	-101
2.13200	-101
2.13567	-100
2.13933	-100
2.14300	-99
2.14667	-99
2.15033	-98
2.15400	-97
2.15767	-96
2.16133	-96
2.16500	-95
2.16867	-95
2.17233	-94
2.17600	-95
2.17967	-95
2.18333	-95
2.18700	-94
2.19067	-94
2.19433	-93
2.19800	-93
2.20167	-92
2.20533	-91
2.20900	-91
2.21267	-91
2.21633	-90
2.22000	-90
2.22367	-90
2.22733	-90
2.23100	-90
2.23467	-90
2.23833	-89
2.24200	-89
2.24567	-87
2.24933	-86
2.25300	-86
2.25667	-85
2.26033	-85
2.26400	-85
2.26767	-84
2.27133	-84
2.27500	-84
2.27867	-84
2.28233	-84
2.28600	-84
2.28967	-85
2.29333	-85
2.29700	-86
2.30067	-86
2.30433	-86
2.30800	-86
2.31167	-86
2.31533	-85
2.31900	-83
2.32267	-82
2.32633	-81
2.33000	-81
2.33367	-81
2.33733	-81
2.34100	-81
2.34467	-82
2.34833	-82
2.35200	-81
2.35567	-80
2.35933	-79
2.36300	-78
2.36667	-75
2.37033	-72
2.37400	-69
2.37767	-65
2.38133	-61
2.38500	-56
2.38867	-52
2.39233	-47
2.39600	-43
2.39967	-38
2.40333	-34
2.40700	-30
2.41067	-25
2.41433	-22
2.41800	-19
2.42167	-16
2.42533	-14
2.42900	-12
2.43267	-11
2.43633	-10
2.44000	-9
2.44367	-9
2.44733	-8
2.45100	-8
2.45467	-8
2.45833	-7
2.46200	-7
2.46567	-7
2.46933	-6
2.47300	-6
2.47667	-5
2.48033	-5
2.48400	-4
2.48767	-2
2.49133	-1
2.49500	1
2.49867	2
2.50233	4
2.50600	5
2.50967	5
2.51333	5
2.51700	6
2.52067	6
2.52433	6
2.52800	7
2.53167	8
2.53533	9
2.53900	10
2.54267	10
2.54633	11
2.55000	11
2.55367	11
2.55733	11
2.56100	11
2.56467	11
2.56833	12
2.57200	12
2.57567	12
2.57933	12
2.58300	12
2.58667	12
2.59033	12
2.59400	12
2.59767	13
2.60133	13
2.60500	13
2.60867	14
2.61233	14
2.61600	15
2.61967	15
2.62333	15
2.62700	15
2.63067	16
2.63433	15
2.63800	15
2.64167	15
2.64533	15
2.64900	15
2.65267	15
2.65633	15
2.66000	15
2.66367	16
2.66733	16
2.67100	17
2.67467	18
2.67833	19
2.68200	20
2.68567	20
2.68933	20
2.69300	20
2.69667	20
2.70033	20
2.70400	20
2.70767	20
2.71133	20
2.71500	20
2.71867	20
2.72233	20
2.72600	20
2.72967	21
2.73333	21
2.73700	22
2.74067	23
2.74433	23
2.74800	24
2.75167	24
2.75533	24
2.75900	25
2.76267	25
2.76633	25
2.77000	25
2.77367	26
2.77733	26
2.78100	26
2.78467	26
2.78833	25
2.79200	24
2.79567	23
2.79933	22
2.80300	21
2.80667	21
2.81033	20
2.81400	19
2.81767	19
2.82133	19
2.82500	19
2.82867	19
2.83233	20
2.83600	20
2.83967	20
2.84333	19
2.84700	18
2.85067	14
2.85433	8
2.85800	-1
2.86167	-13
2.86533	-29
2.86900	-50
2.87267	-75
2.87633	-104
2.88000	-138
2.88367	-176
2.88733	-218
2.89100	-263
2.89467	-311
2.89833	-361
2.90200	-414
2.90567	-467
2.90933	-522
2.91300	-578
2.91667	-633
2.92033	-688
2.92400	-742
2.92767	-794
2.93133	-846
2.93500	-899
2.93867	-956
2.94233	-1014
2.94600	-1064
2.94967	-1094
2.95333	-1100
2.95700	-1079
2.96067	-1036
2.96433	-976
2.96800	-904
2.97167	-825
2.97533	-745
2.97900	-665
2.98267	-589
2.98633	-518
2.99000	-452
2.99367	-392
2.99733	-339
3.00100	-292
3.00467	-250
3.00833	-214
3.01200	-182
3.01567	-154
3.01933	-130
3.02300	-110
3.02667	-92
3.03033	-77
3.03400	-65
3.03767	-54
3.04133	-45
3.04500	-37
3.04867	-30
3.05233	-24
3.05600	-19
3.05967	-15
3.06333	-11
3.06700	-8
3.07067	-5
3.07433	-3
3.07800	-1
3.08167	1
3.08533	2
3.08900	3
3.09267	4
3.09633	6
3.10000	7
3.10367	8
3.10733	9
3.11100	10
3.11467	10
3.11833	11
3.12200	11
3.12567	12
3.12933	12
3.13300	13
3.13667	14
3.14033	14
3.14400	14
3.14767	14
3.15133	15
3.15500	15
3.15867	15
3.16233	15
3.16600	15
3.16967	16
3.17333	16
3.17700	16
3.18067	17
3.18433	17
3.18800	17
3.19167	17
3.19533	17
3.19900	17
3.20267	17
3.20633	17
3.21000	17
3.21367	17
3.21733	18
3.22100	18
3.22467	18
3.22833	18
3.23200	18
3.23567	18
3.23933	19
3.24300	19
3.24667	19
3.25033	19
3.25400	19
3.25767	19
3.26133	19
3.26500	20
3.26867	20
3.27233	20
3.27600	21
3.27967	21
3.28333	22
3.28700	22
3.29067	22
3.29433	23
3.29800	23
3.30167	23
3.30533	23
3.30900	24
3.31267	24
3.31633	24
3.32000	24
3.32367	24
3.32733	24
3.33100	24
3.33467	24
3.33833	24
3.34200	24
3.34567	24
3.34933	24
3.35300	24
3.35667	24
3.36033	24
3.36400	24
3.36767	24
3.37133	24
3.37500	24
3.37867	23
3.38233	23
3.38600	23
3.38967	23
3.39333	23
3.39700	23
3.40067	22
3.40433	22
3.40800	22
3.41167	22
3.41533	22
3.41900	22
3.42267	22
3.42633	23
3.43000	23
3.43367	23
3.43733	23
3.44100	23
3.44467	23
3.44833	23
3.45200	23
3.45567	22
3.45933	22
3.46300	22
3.46667	22
3.47033	22
3.47400	22
3.47767	22
3.48133	22
3.48500	22
3.48867	22
3.49233	22
3.49600	23
3.49967	23
3.50333	23
3.50700	23
3.51067	23
3.51433	23
3.51800	23
3.52167	23
3.52533	23
3.52900	23
3.53267	23
3.53633	23
3.54000	23
3.54367	23
3.54733	23
3.55100	23
3.55467	23
3.55833	23
3.56200	23
3.56567	23
3.56933	23
3.57300	23
3.57667	23
3.58033	22
3.58400	22
3.58767	23
3.59133	23
3.59500	23
3.59867	23
3.60233	23
3.60600	23
3.60967	23
3.61333	23
3.61700	23
3.62067	24
3.62433	24
3.62800	25
3.63167	25
3.63533	25
3.63900	25
3.64267	26
3.64633	26
3.65000	26
3.65367	26
3.65733	26
3.66100	26
3.66467	26
3.66833	26
3.67200	26
3.67567	27
3.67933	27
3.68300	27
3.68667	27
3.69033	27
3.69400	27
3.69767	27
3.70133	27
3.70500	26
3.70867	26
3.71233	26
3.71600	26
3.71967	25
3.72333	25
3.72700	25
3.73067	25
3.73433	25
3.73800	25
3.74167	25
3.74533	24
3.74900	24
3.75267	24
3.75633	25
3.76000	25
3.76367	25
3.76733	25
3.77100	24
3.77467	24
3.77833	24
3.78200	24
3.78567	24
3.78933	24
3.79300	24
3.79667	24
3.80033	23
3.80400	23
3.80767	23
3.81133	23
3.81500	23
3.81867	23
3.82233	23
3.82600	23
3.82967	23
3.83333	23
3.83700	23
3.84067	23
3.84433	23
3.84800	23
3.85167	23
3.85533	23
3.85900	23
3.86267	23
3.86633	23
3.87000	23
3.87367	23
3.87733	23
3.88100	23
3.88467	23
3.88833	22
3.89200	22
3.89567	22
3.89933	22
3.90300	22
3.90667	22
3.91033	22
3.91400	23
3.91767	23
3.92133	23
3.92500	23
3.92867	22
3.93233	22
3.93600	22
3.93967	22
3.94333	23
3.94700	23
3.95067	23
3.95433	23
3.95800	23
3.96167	23
3.96533	23
3.96900	22
3.97267	22
3.97633	22
3.98000	22
3.98367	22
3.98733	23
3.99100	23
3.99467	23
3.99833	23

[Chromatogram (Ch3)]
Interval(msec)	220
# of Points	1091
Start Time(min)	0.002
End Time(min)	3.998
R.Time (min)	Intensity
0.00167	-0
0.00533	-3
0.00900	-4
0.01267	-3
0.01633	-4
0.02000	-7
0.02367	-10
0.02733	-10
0.03100	-9
0.03467	-8
0.03833	-6
0.04200	-5
0.04567	-6
0.04933	-5
0.05300	-6
0.05667	-6
0.06033	-6
0.06400	-6
0.06767	-6
0.07133	-5
0.07500	-5
0.07867	-6
0.08233	-8
0.08600	-8
0.08967	-6
0.09333	-6
0.09700	-5
0.10067	-5
0.10433	-5
0.10800	-4
0.11167	-5
0.11533	-5
0.11900	-5
0.12267	-6
0.12633	-5
0.13000	-5
0.13367	-4
0.13733	-4
0.14100	-6
0.14467	-6
0.14833	-5
0.15200	-5
0.15567	-6
0.15933	-7
0.16300	-7
0.16667	-9
0.17033	-10
0.17400	-9
0.17767	-7
0.18133	-6
0.18500	-6
0.18867	-5
0.19233	-4
0.19600	-3
0.19967	-2
0.20333	-3
0.20700	-4
0.21067	-5
0.21433	-6
0.21800	-7
0.22167	-7
0.22533	-8
0.22900	-9
0.23267	-6
0.23633	-2
0.24000	-0
0.24367	-0
0.24733	-2
0.25100	-2
0.25467	-2
0.25833	-1
0.26200	0
0.26567	1
0.26933	2
0.27300	3
0.27667	4
0.28033	4
0.28400	4
0.28767	4
0.29133	4
0.29500	3
0.29867	2
0.30233	3
0.30600	6
0.30967	7
0.31333	7
0.31700	7
0.32067	7
0.32433	5
0.32800	5
0.33167	4
0.33533	6
0.33900	8
0.34267	8
0.34633	7
0.35000	7
0.35367	8
0.35733	8
0.36100	6
0.36467	5
0.36833	6
0.37200	7
0.37567	8
0.37933	9
0.38300	11
0.38667	13
0.39033	13
0.39400	14
0.39767	15
0.40133	15
0.40500	14
0.40867	14
0.41233	12
0.41600	11
0.41967	10
0.42333	10
0.42700	11
0.43067	13
0.43433	15
0.43800	16
0.44167	14
0.44533	12
0.44900	13
0.45267	16
0.45633	18
0.46000	17
0.46367	16
0.46733	14
0.47100	14
0.47467	12
0.47833	9
0.48200	8
0.48567	7
0.48933	5
0.49300	4
0.49667	4
0.50033	4
0.50400	4
0.50767	4
0.51133	6
0.51500	8
0.51867	9
0.52233	10
0.52600	9
0.52967	9
0.53333	7
0.53700	7
0.54067	6
0.54433	5
0.54800	7
0.55167	7
0.55533	6
0.55900	6
0.56267	5
0.56633	4
0.57000	4
0.57367	3
0.57733	4
0.58100	5
0.58467	6
0.58833	6
0.59200	6
0.59567	5
0.59933	5
0.60300	4
0.60667	4
0.61033	5
0.61400	4
0.61767	3
0.62133	3
0.62500	3
0.62867	3
0.63233	4
0.63600	3
0.63967	4
0.64333	5
0.64700	6
0.65067	8
0.65433	7
0.65800	5
0.66167	4
0.66533	5
0.66900	5
0.67267	5
0.67633	4
0.68000	3
0.68367	3
0.68733	4
0.69100	5
0.69467	6
0.69833	7
0.70200	8
0.70567	9
0.70933	9
0.71300	8
0.71667	6
0.72033	4
0.72400	4
0.72767	6
0.73133	7
0.73500	8
0.73867	9
0.74233	10
0.74600	10
0.74967	12
0.75333	14
0.75700	15
0.76067	15
0.76433	16
0.76800	16
0.77167	16
0.77533	16
0.77900	16
0.78267	15
0.78633	13
0.79000	13
0.79367	13
0.79733	13
0.80100	13
0.80467	14
0.80833	16
0.81200	15
0.81567	14
0.81933	12
0.82300	11
0.82667	12
0.83033	14
0.83400	16
0.83767	16
0.84133	13
0.84500	10
0.84867	8
0.85233	9
0.85600	11
0.85967	13
0.86333	12
0.86700	13
0.87067	15
0.87433	18
0.87800	19
0.88167	18
0.88533	17
0.88900	16
0.89267	15
0.89633	13
0.90000	15
0.90367	17
0.90733	18
0.91100	18
0.91467	15
0.91833	12
0.92200	12
0.92567	13
0.92933	13
0.93300	13
0.93667	11
0.94033	10
0.94400	9
0.94767	8
0.95133	7
0.95500	6
0.95867	6
0.96233	7
0.96600	8
0.96967	9
0.97333	10
0.97700	12
0.98067	15
0.98433	15
0.98800	13
0.99167	10
0.99533	8
0.99900	8
1.00267	8
1.00633	9
1.01000	12
1.01367	13
1.01733	15
1.02100	16
1.02467	15
1.02833	12
1.03200	9
1.03567	8
1.03933	8
1.04300	8
1.04667	9
1.05033	13
1.05400	15
1.05767	15
1.06133	12
1.06500	9
1.06867	8
1.07233	7
1.07600	4
1.07967	6
1.08333	9
1.08700	10
1.09067	10
1.09433	11
1.09800	11
1.10167	12
1.10533	12
1.10900	13
1.11267	14
1.11633	15
1.12000	15
1.12367	15
1.12733	16
1.13100	14
1.13467	14
1.13833	15
1.14200	18
1.14567	18
1.14933	16
1.15300	15
1.15667	15
1.16033	13
1.16400	12
1.16767	12
1.17133	13
1.17500	14
1.17867	15
1.18233	16
1.18600	17
1.18967	15
1.19333	14
1.19700	14
1.20067	14
1.20433	13
1.20800	13
1.21167	11
1.21533	6
1.21900	4
1.22267	3
1.22633	4
1.23000	5
1.23367	6
1.23733	7
1.24100	8
1.24467	9
1.24833	11
1.25200	12
1.25567	10
1.25933	6
1.26300	4
1.26667	4
1.27033	5
1.27400	4
1.27767	4
1.28133	6
1.28500	7
1.28867	8
1.29233	7
1.29600	7
1.29967	8
1.30333	8
1.30700	9
1.31067	11
1.31433	12
1.31800	12
1.32167	13
1.32533	14
1.32900	14
1.33267	13
1.33633	12
1.34000	9
1.34367	7
1.34733	5
1.35100	6
1.35467	8
1.35833	9
1.36200	9
1.36567	8
1.36933	7
1.37300	7
1.37667	6
1.38033	6
1.38400	5
1.38767	7
1.39133	9
1.39500	10
1.39867	11
1.40233	10
1.40600	10
1.40967	9
1.41333	8
1.41700	8
1.42067	9
1.42433	9
1.42800	8
1.43167	7
1.43533	6
1.43900	4
1.44267	2
1.44633	3
1.45000	6
1.45367	7
1.45733	9
1.46100	11
1.46467	9
1.46833	8
1.47200	6
1.47567	7
1.47933	8
1.48300	12
1.48667	13
1.49033	14
1.49400	14
1.49767	14
1.50133	14
1.50500	11
1.50867	9
1.51233	9
1.51600	9
1.51967	11
1.52333	10
1.52700	9
1.53067	7
1.53433	7
1.53800	9
1.54167	10
1.54533	11
1.54900	9
1.55267	9
1.55633	9
1.56000	8
1.56367	8
1.56733	8
1.57100	7
1.57467	7
1.57833	7
1.58200	10
1.58567	10
1.58933	9
1.59300	11
1.59667	12
1.60033	12
1.60400	12
1.60767	13
1.61133	16
1.61500	16
1.61867	16
1.62233	14
1.62600	13
1.62967	15
1.63333	17
1.63700	17
1.64067	16
1.64433	17
1.64800	19
1.65167	19
1.65533	19
1.65900	21
1.66267	23
1.66633	24
1.67000	24
1.67367	25
1.67733	25
1.68100	26
1.68467	27
1.68833	28
1.69200	30
1.69567	29
1.69933	29
1.70300	31
1.70667	32
1.71033	33
1.71400	33
1.71767	30
1.72133	29
1.72500	30
1.72867	29
1.73233	30
1.73600	32
1.73967	32
1.74333	29
1.74700	28
1.75067	30
1.75433	32
1.75800	32
1.76167	32
1.76533	33
1.76900	34
1.77267	34
1.77633	34
1.78000	35
1.78367	35
1.78733	36
1.79100	39
1.79467	40
1.79833	39
1.80200	40
1.80567	41
1.80933	41
1.81300	40
1.81667	38
1.82033	38
1.82400	38
1.82767	39
1.83133	40
1.83500	41
1.83867	41
1.84233	41
1.84600	43
1.84967	45
1.85333	48
1.85700	48
1.86067	48
1.86433	46
1.86800	47
1.87167	49
1.87533	49
1.87900	51
1.88267	52
1.88633	52
1.89000	52
1.89367	55
1.89733	58
1.90100	60
1.90467	60
1.90833	61
1.91200	62
1.91567	62
1.91933	63
1.92300	65
1.92667	64
1.93033	63
1.93400	62
1.93767	63
1.94133	68
1.94500	72
1.94867	74
1.95233	75
1.95600	75
1.95967	77
1.96333	81
1.96700	82
1.97067	84
1.97433	87
1.97800	91
1.98167	94
1.98533	93
1.98900	92
1.99267	91
1.99633	90
2.00000	92
2.00367	95
2.00733	96
2.01100	97
2.01467	99
2.01833	100
2.02200	101
2.02567	101
2.02933	102
2.03300	108
2.03667	111
2.04033	111
2.04400	110
2.04767	111
2.05133	112
2.05500	113
2.05867	113
2.06233	113
2.06600	114
2.06967	114
2.07333	115
2.07700	116
2.08067	117
2.08433	117
2.08800	118
2.09167	118
2.09533	121
2.09900	123
2.10267	126
2.10633	129
2.11000	130
2.11367	131
2.11733	131
2.12100	133
2.12467	134
2.12833	133
2.13200	132
2.13567	133
2.13933	135
2.14300	137
2.14667	140
2.15033	141
2.15400	141
2.15767	142
2.16133	143
2.16500	145
2.16867	146
2.17233	147
2.17600	148
2.17967	148
2.18333	147
2.18700	148
2.19067	148
2.19433	148
2.19800	150
2.20167	152
2.20533	153
2.20900	152
2.21267	151
2.21633	152
2.22000	154
2.22367	156
2.22733	159
2.23100	162
2.23467	165
2.23833	166
2.24200	167
2.24567	168
2.24933	169
2.25300	169
2.25667	171
2.26033	172
2.26400	173
2.26767	173
2.27133	174
2.27500	174
2.27867	174
2.28233	175
2.28600	178
2.28967	181
2.29333	183
2.29700	184
2.30067	184
2.30433	183
2.30800	183
2.31167	183
2.31533	184
2.31900	186
2.32267	189
2.32633	192
2.33000	194
2.33367	197
2.33733	198
2.34100	199
2.34467	201
2.34833	203
2.35200	203
2.35567	205
2.35933	207
2.36300	206
2.36667	206
2.37033	208
2.37400	209
2.37767	209
2.38133	207
2.38500	205
2.38867	205
2.39233	207
2.39600	209
2.39967	209
2.40333	211
2.40700	215
2.41067	220
2.41433	223
2.41800	226
2.42167	226
2.42533	225
2.42900	226
2.43267	227
2.43633	226
2.44000	229
2.44367	276
2.44733	402
2.45100	537
2.45467	647
2.45833	706
2.46200	704
2.46567	672
2.46933	638
2.47300	615
2.47667	602
2.48033	586
2.48400	558
2.48767	517
2.49133	475
2.49500	436
2.49867	406
2.50233	384
2.50600	370
2.50967	366
2.51333	370
2.51700	382
2.52067	399
2.52433	415
2.52800	427
2.53167	428
2.53533	418
2.53900	397
2.54267	372
2.54633	346
2.55000	321
2.55367	299
2.55733	280
2.56100	263
2.56467	250
2.56833	242
2.57200	239
2.57567	238
2.57933	236
2.58300	234
2.58667	233
2.59033	233
2.59400	233
2.59767	235
2.60133	234
2.60500	228
2.60867	221
2.61233	207
2.61600	196
2.61967	185
2.62333	173
2.62700	162
2.63067	152
2.63433	143
2.63800	136
2.64167	132
2.64533	127
2.64900	122
2.65267	117
2.65633	109
2.66000	101
2.66367	94
2.66733	88
2.67100	82
2.67467	79
2.67833	76
2.68200	73
2.68567	71
2.68933	69
2.69300	69
2.69667	70
2.70033	69
2.70400	71
2.70767	74
2.71133	77
2.71500	82
2.71867	83
2.72233	85
2.72600	90
2.72967	95
2.73333	99
2.73700	102
2.74067	106
2.74433	109
2.74800	112
2.75167	116
2.75533	119
2.75900	122
2.76267	124
2.76633	128
2.77000	132
2.77367	134
2.77733	136
2.78100	137
2.78467	137
2.78833	139
2.79200	141
2.79567	145
2.79933	147
2.80300	149
2.80667	152
2.81033	155
2.81400	162
2.81767	170
2.82133	181
2.82500	197
2.82867	227
2.83233	286
2.83600	396
2.83967	575
2.84333	845
2.84700	1212
2.85067	1673
2.85433	2211
2.85800	2786
2.86167	3357
2.86533	3876
2.86900	4301
2.87267	4602
2.87633	4763
2.88000	4782
2.88367	4681
2.88733	4486
2.89100	4220
2.89467	3910
2.89833	3576
2.90200	3240
2.90567	2914
2.90933	2607
2.91300	2322
2.91667	2060
2.92033	1825
2.92400	1614
2.92767	1427
2.93133	1265
2.93500	1122
2.93867	997
2.94233	884
2.94600	787
2.94967	703
2.95333	631
2.95700	568
2.96067	515
2.96433	470
2.96800	427
2.97167	386
2.97533	353
2.97900	326
2.98267	302
2.98633	281
2.99000	265
2.99367	249
2.99733	236
3.00100	224
3.00467	214
3.00833	206
3.01200	198
3.01567	191
3.01933	184
3.02300	177
3.02667	172
3.03033	168
3.03400	166
3.03767	164
3.04133	162
3.04500	159
3.04867	155
3.05233	154
3.05600	154
3.05967	155
3.06333	156
3.06700	155
3.07067	154
3.07433	152
3.07800	153
3.08167	154
3.08533	155
3.08900	156
3.09267	154
3.09633	154
3.10000	152
3.10367	145
3.10733	141
3.11100	148
3.11467	160
3.11833	177
3.12200	197
3.12567	222
3.12933	252
3.13300	285
3.13667	323
3.14033	362
3.14400	402
3.14767	442
3.15133	480
3.15500	511
3.15867	539
3.16233	566
3.16600	591
3.16967	612
3.17333	629
3.17700	644
3.18067	658
3.18433	669
3.18800	681
3.19167	693
3.19533	704
3.19900	714
3.20267	721
3.20633	726
3.21000	732
3.21367	736
3.21733	741
3.22100	747
3.22467	755
3.22833	761
3.23200	766
3.23567	770
3.23933	774
3.24300	778
3.24667	782
3.25033	788
3.25400	795
3.25767	801
3.26133	806
3.26500	812
3.26867	817
3.27233	821
3.27600	825
3.27967	828
3.28333	831
3.28700	832
3.29067	835
3.29433	838
3.29800	841
3.30167	843
3.30533	847
3.30900	849
3.31267	849
3.31633	850
3.32000	850
3.32367	849
3.32733	849
3.33100	848
3.33467	847
3.33833	844
3.34200	843
3.34567	844
3.34933	847
3.35300	849
3.35667	847
3.36033	843
3.36400	842
3.36767	840
3.37133	839
3.37500	838
3.37867	837
3.38233	837
3.38600	835
3.38967	831
3.39333	828
3.39700	828
3.40067	827
3.40433	825
3.40800	821
3.41167	819
3.41533	818
3.41900	818
3.42267	817
3.42633	814
3.43000	811
3.43367	809
3.43733	805
3.44100	803
3.44467	800
3.44833	799
3.45200	799
3.45567	798
3.45933	796
3.46300	795
3.46667	793
3.47033	791
3.47400	788
3.47767	786
3.48133	786
3.48500	784
3.48867	780
3.49233	776
3.49600	775
3.49967	776
3.50333	775
3.50700	772
3.51067	770
3.51433	767
3.51800	765
3.52167	764
3.52533	762
3.52900	761
3.53267	760
3.53633	759
3.54000	759
3.54367	760
3.54733	759
3.55100	759
3.55467	760
3.55833	760
3.56200	760
3.56567	760
3.56933	758
3.57300	758
3.57667	757
3.58033	757
3.58400	758
3.58767	758
3.59133	755
3.59500	753
3.59867	749
3.60233	744
3.60600	740
3.60967	740
3.61333	741
3.61700	739
3.62067	737
3.62433	737
3.62800	735
3.63167	732
3.63533	728
3.63900	726
3.64267	724
3.64633	722
3.65000	720
3.65367	719
3.65733	718
3.66100	716
3.66467	713
3.66833	710
3.67200	707
3.67567	707
3.67933	706
3.68300	704
3.68667	702
3.69033	700
3.69400	699
3.69767	699
3.70133	696
3.70500	695
3.70867	693
3.71233	691
3.71600	688
3.71967	684
3.72333	680
3.72700	679
3.73067	676
3.73433	674
3.73800	675
3.74167	674
3.74533	671
3.74900	669
3.75267	665
3.75633	664
3.76000	663
3.76367	661
3.76733	659
3.77100	657
3.77467	657
3.77833	655
3.78200	651
3.78567	648
3.78933	646
3.79300	644
3.79667	641
3.80033	639
3.80400	639
3.80767	636
3.81133	634
3.81500	633
3.81867	631
3.82233	630
3.82600	626
3.82967	622
3.83333	618
3.83700	615
3.84067	616
3.84433	615
3.84800	613
3.85167	611
3.85533	608
3.85900	604
3.86267	602
3.86633	600
3.87000	599
3.87367	598
3.87733	597
3.88100	597
3.88467	596
3.88833	594
3.89200	592
3.89567	591
3.89933	590
3.90300	591
3.90667	590
3.91033	585
3.91400	581
3.91767	580
3.92133	578
3.92500	576
3.92867	577
3.93233	580
3.93600	577
3.93967	572
3.94333	567
3.94700	566
3.95067	564
3.95433	563
3.95800	562
3.96167	561
3.96533	561
3.96900	563
3.97267	562
3.97633	561
3.98000	561
3.98367	559
3.98733	556
3.99100	555
3.99467	554
3.99833	551

[Status Trace (Column Oven Temperature)]
Interval(msec)	1000
# of Points	240
Start Time(min)	0.008
End Time(min)	3.991
Intensity Units	
Intensity Multiplier	1
R.Time (min)	Intensity
0.00780	35.04
0.02447	35.05
0.04113	35.03
0.05780	35.02
0.07447	35.02
0.09113	35.02
0.10780	35.03
0.12447	35.03
0.14113	35.04
0.15780	35.04
0.17447	35.04
0.19113	35.05
0.20780	35.05
0.22447	35.05
0.24113	35.05
0.25780	35.04
0.27447	35.03
0.29113	35.01
0.30780	35.01
0.32447	35.01
0.34113	35.01
0.35780	35.01
0.37447	35.01
0.39113	35.02
0.40780	35.03
0.42447	35.03
0.44113	35.02
0.45780	35.02
0.47447	35.01
0.49113	35.00
0.50780	35.01
0.52447	35.01
0.54113	35.02
0.55780	35.01
0.57447	35.00
0.59113	34.99
0.60780	34.99
0.62447	34.99
0.64113	34.99
0.65780	35.00
0.67447	35.01
0.69113	35.02
0.70780	35.02
0.72447	35.02
0.74113	35.02
0.75780	35.02
0.77447	35.02
0.79113	35.01
0.80780	35.00
0.82447	34.99
0.84113	35.00
0.85780	34.99
0.87447	34.98
0.89113	34.99
0.90780	34.99
0.92447	34.99
0.94113	34.99
0.95780	34.98
0.97447	34.99
0.99113	34.99
1.00780	34.99
1.02447	34.99
1.04113	35.00
1.05780	34.99
1.07447	34.99
1.09113	34.99
1.10780	35.01
1.12447	34.99
1.14113	35.00
1.15780	35.00
1.17447	35.00
1.19113	35.00
1.20780	34.99
1.22447	34.99
1.24113	34.99
1.25780	35.00
1.27447	34.99
1.29113	34.99
1.30780	34.98
1.32447	34.98
1.34113	34.99
1.35780	35.00
1.37447	35.00
1.39113	35.00
1.40780	35.00
1.42447	34.99
1.44113	34.98
1.45780	34.98
1.47447	34.98
1.49113	34.97
1.50780	34.97
1.52447	34.97
1.54113	34.97
1.55780	34.97
1.57447	34.97
1.59113	34.98
1.60780	35.04
1.62447	35.18
1.64113	35.37
1.65780	35.62
1.67447	35.96
1.69113	36.33
1.70780	36.69
1.72447	37.01
1.74113	37.32
1.75780	37.66
1.77447	38.01
1.79113	38.34
1.80780	38.67
1.82447	38.99
1.84113	39.33
1.85780	39.65
1.87447	39.97
1.89113	40.30
1.90780	40.63
1.92447	40.96
1.94113	41.29
1.95780	41.63
1.97447	41.96
1.99113	42.28
2.00780	42.62
2.02447	42.96
2.04113	43.27
2.05780	43.59
2.07447	43.93
2.09113	44.24
2.10780	44.57
2.12447	44.91
2.14113	45.24
2.15780	45.54
2.17447	45.87
2.19113	46.20
2.20780	46.51
2.22447	46.85
2.24113	47.18
2.25780	47.50
2.27447	47.80
2.29113	48.16
2.30780	48.49
2.32447	48.80
2.34113	49.17
2.35780	49.46
2.37447	49.62
2.39113	49.68
2.40780	49.66
2.42447	49.67
2.44113	49.67
2.45780	49.67
2.47447	49.70
2.49113	49.69
2.50780	49.71
2.52447	49.74
2.54113	49.75
2.55780	49.78
2.57447	49.79
2.59113	49.81
2.60780	49.81
2.62447	49.81
2.64113	49.84
2.65780	49.85
2.67447	49.84
2.69113	49.85
2.70780	49.87
2.72447	49.87
2.74113	49.86
2.75780	49.85
2.77447	49.84
2.79113	49.87
2.80780	49.91
2.82447	49.92
2.84113	49.93
2.85780	49.93
2.87447	49.92
2.89113	49.93
2.90780	49.94
2.92447	49.95
2.94113	49.96
2.95780	49.96
2.97447	49.97
2.99113	49.97
3.00780	49.97
3.02447	49.99
3.04113	50.00
3.05780	50.01
3.07447	50.03
3.09113	50.04
3.10780	50.04
3.12447	50.05
3.14113	50.06
3.15780	50.07
3.17447	50.07
3.19113	50.08
3.20780	50.09
3.22447	50.09
3.24113	50.10
3.25780	50.11
3.27447	50.09
3.29113	50.08
3.30780	50.07
3.32447	50.07
3.34113	50.07
3.35780	50.07
3.37447	50.06
3.39113	50.06
3.40780	50.06
3.42447	50.06
3.44113	50.06
3.45780	50.07
3.47447	50.08
3.49113	50.09
3.50780	50.10
3.52447	50.09
3.54113	50.09
3.55780	50.10
3.57447	50.10
3.59113	50.10
3.60780	50.10
3.62447	50.09
3.64113	50.09
3.65780	50.08
3.67447	50.05
3.69113	50.03
3.70780	50.03
3.72447	50.03
3.74113	50.03
3.75780	50.03
3.77447	50.02
3.79113	50.02
3.80780	50.03
3.82447	50.03
3.84113	50.03
3.85780	50.02
3.87447	50.02
3.89113	50.03
3.90780	50.03
3.92447	50.03
3.94113	50.03
3.95780	50.04
3.97447	50.04
3.99113	50.02

[Status Trace (Injection Unit Temperature)]
Interval(msec)	1000
# of Points	240
Start Time(min)	0.008
End Time(min)	3.991
Intensity Units	
Intensity Multiplier	1
R.Time (min)	Intensity
0.00780	99.97
0.02447	99.97
0.04113	99.97
0.05780	99.98
0.07447	99.98
0.09113	99.98
0.10780	99.98
0.12447	99.98
0.14113	99.98
0.15780	99.98
0.17447	99.98
0.19113	99.98
0.20780	99.98
0.22447	99.99
0.24113	99.99
0.25780	99.98
0.27447	99.99
0.29113	99.99
0.30780	99.99
0.32447	99.99
0.34113	99.99
0.35780	99.99
0.37447	99.99
0.39113	99.99
0.40780	99.99
0.42447	99.99
0.44113	99.99
0.45780	99.99
0.47447	99.99
0.49113	99.99
0.50780	100.00
0.52447	99.99
0.54113	99.99
0.55780	99.99
0.57447	99.99
0.59113	99.99
0.60780	99.99
0.62447	99.99
0.64113	99.99
0.65780	99.99
0.67447	99.99
0.69113	99.99
0.70780	99.99
0.72447	99.99
0.74113	99.98
0.75780	99.99
0.77447	99.99
0.79113	99.98
0.80780	99.98
0.82447	99.99
0.84113	99.99
0.85780	99.98
0.87447	99.98
0.89113	99.98
0.90780	99.98
0.92447	99.98
0.94113	99.98
0.95780	99.98
0.97447	99.98
0.99113	99.98
1.00780	99.98
1.02447	99.98
1.04113	99.98
1.05780	99.98
1.07447	99.98
1.09113	99.98
1.10780	99.98
1.12447	99.98
1.14113	99.98
1.15780	99.98
1.17447	99.98
1.19113	99.98
1.20780	99.98
1.22447	99.98
1.24113	99.98
1.25780	99.98
1.27447	99.98
1.29113	99.97
1.30780	99.98
1.32447	99.98
1.34113	99.98
1.35780	99.97
1.37447	99.98
1.39113	99.98
1.40780	99.98
1.42447	99.98
1.44113	99.98
1.45780	99.98
1.47447	99.98
1.49113	99.98
1.50780	99.98
1.52447	99.98
1.54113	99.98
1.55780	99.98
1.57447	99.98
1.59113	99.98
1.60780	99.98
1.62447	99.99
1.64113	99.98
1.65780	99.98
1.67447	99.99
1.69113	99.99
1.70780	99.99
1.72447	99.99
1.74113	99.99
1.75780	99.99
1.77447	99.99
1.79113	99.99
1.80780	99.99
1.82447	99.99
1.84113	99.99
1.85780	99.99
1.87447	99.99
1.89113	99.99
1.90780	99.99
1.92447	99.99
1.94113	99.99
1.95780	99.99
1.97447	99.98
1.99113	99.98
2.00780	99.98
2.02447	99.98
2.04113	99.98
2.05780	99.98
2.07447	99.98
2.09113	99.98
2.10780	99.97
2.12447	99.98
2.14113	99.98
2.15780	99.97
2.17447	99.97
2.19113	99.97
2.20780	99.97
2.22447	99.97
2.24113	99.97
2.25780	99.97
2.27447	99.96
2.29113	99.97
2.30780	99.97
2.32447	99.97
2.34113	99.97
2.35780	99.97
2.37447	99.97
2.39113	99.97
2.40780	99.97
2.42447	99.97
2.44113	99.97
2.45780	99.97
2.47447	99.97
2.49113	99.97
2.50780	99.97
2.52447	99.97
2.54113	99.97
2.55780	99.97
2.57447	99.97
2.59113	99.97
2.60780	99.97
2.62447	99.97
2.64113	99.97
2.65780	99.98
2.67447	99.98
2.69113	99.98
2.70780	99.98
2.72447	99.99
2.74113	99.98
2.75780	99.99
2.77447	99.99
2.79113	99.99
2.80780	99.99
2.82447	100.00
2.84113	100.00
2.85780	100.00
2.87447	100.00
2.89113	100.00
2.90780	100.00
2.92447	100.01
2.94113	100.00
2.95780	100.01
2.97447	100.01
2.99113	100.01
3.00780	100.01
3.02447	100.01
3.04113	100.02
3.05780	100.02
3.07447	100.02
3.09113	100.02
3.10780	100.02
3.12447	100.02
3.14113	100.02
3.15780	100.03
3.17447	100.02
3.19113	100.02
3.20780	100.03
3.22447	100.03
3.24113	100.03
3.25780	100.03
3.27447	100.04
3.29113	100.03
3.30780	100.04
3.32447	100.04
3.34113	100.04
3.35780	100.04
3.37447	100.04
3.39113	100.04
3.40780	100.04
3.42447	100.05
3.44113	100.04
3.45780	100.04
3.47447	100.04
3.49113	100.05
3.50780	100.04
3.52447	100.05
3.54113	100.05
3.55780	100.05
3.57447	100.05
3.59113	100.05
3.60780	100.04
3.62447	100.05
3.64113	100.05
3.65780	100.05
3.67447	100.05
3.69113	100.04
3.70780	100.05
3.72447	100.05
3.74113	100.05
3.75780	100.05
3.77447	100.04
3.79113	100.05
3.80780	100.04
3.82447	100.05
3.84113	100.05
3.85780	100.05
3.87447	100.04
3.89113	100.04
3.90780	100.05
3.92447	100.04
3.94113	100.05
3.95780	100.05
3.97447	100.05
3.99113	100.05

[Status Trace (Carrier Gas Pressure)]
Interval(msec)	1000
# of Points	240
Start Time(min)	0.008
End Time(min)	3.991
Intensity Units	
Intensity Multiplier	1
R.Time (min)	Intensity
0.00780	58.00
0.02447	55.36
0.04113	57.08
0.05780	59.27
0.07447	59.35
0.09113	58.07
0.10780	57.98
0.12447	58.01
0.14113	58.01
0.15780	58.01
0.17447	58.00
0.19113	58.00
0.20780	58.00
0.22447	58.00
0.24113	58.00
0.25780	58.00
0.27447	58.00
0.29113	58.00
0.30780	58.00
0.32447	58.00
0.34113	58.00
0.35780	58.00
0.37447	58.00
0.39113	58.00
0.40780	58.00
0.42447	58.00
0.44113	58.00
0.45780	58.00
0.47447	58.00
0.49113	58.00
0.50780	58.00
0.52447	58.00
0.54113	58.00
0.55780	58.00
0.57447	58.00
0.59113	58.00
0.60780	58.00
0.62447	58.00
0.64113	58.00
0.65780	58.00
0.67447	58.00
0.69113	58.00
0.70780	58.00
0.72447	58.00
0.74113	58.00
0.75780	58.00
0.77447	58.00
0.79113	58.00
0.80780	58.00
0.82447	58.00
0.84113	58.00
0.85780	58.00
0.87447	58.00
0.89113	58.00
0.90780	58.00
0.92447	58.00
0.94113	58.00
0.95780	58.00
0.97447	58.00
0.99113	58.00
1.00780	58.00
1.02447	58.00
1.04113	58.00
1.05780	58.00
1.07447	58.00
1.09113	58.00
1.10780	58.00
1.12447	58.00
1.14113	58.00
1.15780	58.00
1.17447	58.00
1.19113	58.00
1.20780	58.00
1.22447	58.00
1.24113	58.00
1.25780	58.00
1.27447	58.00
1.29113	58.00
1.30780	58.00
1.32447	58.00
1.34113	58.00
1.35780	58.00
1.37447	58.00
1.39113	58.00
1.40780	58.00
1.42447	58.00
1.44113	58.00
1.45780	58.00
1.47447	58.00
1.49113	58.00
1.50780	58.00
1.52447	58.00
1.54113	58.00
1.55780	58.00
1.57447	58.00
1.59113	58.00
1.60780	58.00
1.62447	58.00
1.64113	58.00
1.65780	58.00
1.67447	58.01
1.69113	58.00
1.70780	58.00
1.72447	58.00
1.74113	58.00
1.75780	58.00
1.77447	58.00
1.79113	58.00
1.80780	58.00
1.82447	58.00
1.84113	58.00
1.85780	58.00
1.87447	58.00
1.89113	58.00
1.90780	58.00
1.92447	58.00
1.94113	58.00
1.95780	58.00
1.97447	58.00
1.99113	58.00
2.00780	58.00
2.02447	58.00
2.04113	58.00
2.05780	58.00
2.07447	58.00
2.09113	58.00
2.10780	58.00
2.12447	58.00
2.14113	58.00
2.15780	58.00
2.17447	58.00
2.19113	58.00
2.20780	58.00
2.22447	58.00
2.24113	58.00
2.25780	58.00
2.27447	58.00
2.29113	58.00
2.30780	58.00
2.32447	58.00
2.34113	58.00
2.35780	58.00
2.37447	57.99
2.39113	57.99
2.40780	57.99
2.42447	58.00
2.44113	58.00
2.45780	58.00
2.47447	58.00
2.49113	58.00
2.50780	58.00
2.52447	57.98
2.54113	58.00
2.55780	58.00
2.57447	58.00
2.59113	58.00
2.60780	58.00
2.62447	58.00
2.64113	58.00
2.65780	58.00
2.67447	58.00
2.69113	58.00
2.70780	58.00
2.72447	58.00
2.74113	58.00
2.75780	58.00
2.77447	58.00
2.79113	58.00
2.80780	58.00
2.82447	58.00
2.84113	58.00
2.85780	58.00
2.87447	58.00
2.89113	58.00
2.90780	58.00
2.92447	58.00
2.94113	58.00
2.95780	58.00
2.97447	58.00
2.99113	58.00
3.00780	58.00
3.02447	58.00
3.04113	58.00
3.05780	58.00
3.07447	58.00
3.09113	58.00
3.10780	58.00
3.12447	58.00
3.14113	58.00
3.15780	58.00
3.17447	58.00
3.19113	58.00
3.20780	58.00
3.22447	58.00
3.24113	58.00
3.25780	58.00
3.27447	58.00
3.29113	58.00
3.30780	58.00
3.32447	58.00
3.34113	58.00
3.35780	58.00
3.37447	58.00
3.39113	58.00
3.40780	58.00
3.42447	58.00
3.44113	58.00
3.45780	58.00
3.47447	58.00
3.49113	58.00
3.50780	58.00
3.52447	58.00
3.54113	58.00
3.55780	58.00
3.57447	58.00
3.59113	58.00
3.60780	58.00
3.62447	58.00
3.64113	58.00
3.65780	58.00
3.67447	58.00
3.69113	58.00
3.70780	58.00
3.72447	58.00
3.74113	58.00
3.75780	58.00
3.77447	58.00
3.79113	58.00
3.80780	58.00
3.82447	58.00
3.84113	58.00
3.85780	58.00
3.87447	58.00
3.89113	58.00
3.90780	58.00
3.92447	58.00
3.94113	58.00
3.95780	58.00
3.97447	58.00
3.99113	58.00

[Status Trace (Carrier Gas Flow)]
Interval(msec)	1000
# of Points	240
Start Time(min)	0.008
End Time(min)	3.991
Intensity Units	
Intensity Multiplier	1
R.Time (min)	Intensity
0.00780	34.52
0.02447	34.53
0.04113	34.55
0.05780	34.55
0.07447	34.50
0.09113	34.52
0.10780	34.52
0.12447	34.52
0.14113	34.52
0.15780	34.52
0.17447	34.52
0.19113	34.52
0.20780	34.52
0.22447	34.52
0.24113	34.53
0.25780	34.52
0.27447	34.51
0.29113	34.51
0.30780	34.52
0.32447	34.52
0.34113	34.52
0.35780	34.52
0.37447	34.52
0.39113	34.52
0.40780	34.52
0.42447	34.51
0.44113	34.52
0.45780	34.52
0.47447	34.52
0.49113	34.52
0.50780	34.52
0.52447	34.52
0.54113	34.52
0.55780	34.52
0.57447	34.52
0.59113	34.52
0.60780	34.52
0.62447	34.52
0.64113	34.52
0.65780	34.52
0.67447	34.52
0.69113	34.52
0.70780	34.52
0.72447	34.52
0.74113	34.52
0.75780	34.52
0.77447	34.52
0.79113	34.52
0.80780	34.52
0.82447	34.52
0.84113	34.52
0.85780	34.52
0.87447	34.52
0.89113	34.52
0.90780	34.52
0.92447	34.52
0.94113	34.51
0.95780	34.52
0.97447	34.52
0.99113	34.52
1.00780	34.52
1.02447	34.51
1.04113	34.52
1.05780	34.52
1.07447	34.52
1.09113	34.52
1.10780	34.52
1.12447	34.52
1.14113	34.52
1.15780	34.52
1.17447	34.52
1.19113	34.52
1.20780	34.52
1.22447	34.52
1.24113	34.52
1.25780	34.52
1.27447	34.52
1.29113	34.52
1.30780	34.52
1.32447	34.52
1.34113	34.52
1.35780	34.51
1.37447	34.51
1.39113	34.52
1.40780	34.52
1.42447	34.53
1.44113	34.51
1.45780	34.53
1.47447	34.52
1.49113	34.52
1.50780	34.52
1.52447	34.52
1.54113	34.52
1.55780	34.51
1.57447	34.51
1.59113	34.52
1.60780	34.52
1.62447	34.51
1.64113	34.52
1.65780	34.52
1.67447	34.52
1.69113	34.52
1.70780	34.52
1.72447	34.52
1.74113	34.52
1.75780	34.52
1.77447	34.52
1.79113	34.52
1.80780	34.52
1.82447	34.52
1.84113	34.52
1.85780	34.52
1.87447	34.52
1.89113	34.52
1.90780	34.52
1.92447	34.52
1.94113	34.52
1.95780	34.52
1.97447	34.52
1.99113	34.52
2.00780	34.52
2.02447	34.52
2.04113	34.51
2.05780	34.51
2.07447	34.52
2.09113	34.52
2.10780	34.51
2.12447	34.52
2.14113	34.51
2.15780	34.52
2.17447	34.52
2.19113	34.52
2.20780	34.52
2.22447	34.52
2.24113	34.52
2.25780	34.51
2.27447	34.51
2.29113	34.52
2.30780	34.52
2.32447	34.52
2.34113	34.52
2.35780	34.52
2.37447	34.52
2.39113	34.51
2.40780	34.52
2.42447	34.52
2.44113	34.52
2.45780	34.52
2.47447	34.52
2.49113	34.52
2.50780	34.38
2.52447	34.52
2.54113	34.52
2.55780	34.52
2.57447	34.52
2.59113	34.52
2.60780	34.51
2.62447	34.52
2.64113	34.52
2.65780	34.52
2.67447	34.52
2.69113	34.52
2.70780	34.52
2.72447	34.52
2.74113	34.52
2.75780	34.52
2.77447	34.52
2.79113	34.52
2.80780	34.52
2.82447	34.52
2.84113	34.52
2.85780	34.52
2.87447	34.52
2.89113	34.51
2.90780	34.53
2.92447	34.52
2.94113	34.52
2.95780	34.52
2.97447	34.52
2.99113	34.52
3.00780	34.52
3.02447	34.52
3.04113	34.52
3.05780	34.52
3.07447	34.52
3.09113	34.52
3.10780	34.52
3.12447	34.52
3.14113	34.52
3.15780	34.52
3.17447	34.51
3.19113	34.52
3.20780	34.52
3.22447	34.52
3.24113	34.52
3.25780	34.52
3.27447	34.52
3.29113	34.51
3.30780	34.52
3.32447	34.52
3.34113	34.52
3.35780	34.52
3.37447	34.52
3.39113	34.51
3.40780	34.53
3.42447	34.52
3.44113	34.52
3.45780	34.53
3.47447	34.51
3.49113	34.52
3.50780	34.51
3.52447	34.51
3.54113	34.52
3.55780	34.51
3.57447	34.51
3.59113	34.51
3.60780	34.52
3.62447	34.52
3.64113	34.52
3.65780	34.52
3.67447	34.52
3.69113	34.52
3.70780	34.52
3.72447	34.52
3.74113	34.52
3.75780	34.52
3.77447	34.53
3.79113	34.52
3.80780	34.51
3.82447	34.52
3.84113	34.52
3.85780	34.52
3.87447	34.52
3.89113	34.52
3.90780	34.52
3.92447	34.52
3.94113	34.52
3.95780	34.51
3.97447	34.52
3.99113	34.52

[Status Trace (Column Flow)]
Interval(msec)	1000
# of Points	240
Start Time(min)	0.008
End Time(min)	3.991
Intensity Units	
Intensity Multiplier	1
R.Time (min)	Intensity
0.00780	5.53
0.02447	5.22
0.04113	5.42
0.05780	5.68
0.07447	5.69
0.09113	5.54
0.10780	5.53
0.12447	5.53
0.14113	5.53
0.15780	5.53
0.17447	5.53
0.19113	5.53
0.20780	5.53
0.22447	5.53
0.24113	5.53
0.25780	5.53
0.27447	5.53
0.29113	5.53
0.30780	5.53
0.32447	5.53
0.34113	5.53
0.35780	5.53
0.37447	5.53
0.39113	5.53
0.40780	5.53
0.42447	5.53
0.44113	5.53
0.45780	5.53
0.47447	5.53
0.49113	5.53
0.50780	5.53
0.52447	5.53
0.54113	5.53
0.55780	5.53
0.57447	5.53
0.59113	5.53
0.60780	5.53
0.62447	5.53
0.64113	5.53
0.65780	5.53
0.67447	5.53
0.69113	5.53
0.70780	5.53
0.72447	5.53
0.74113	5.53
0.75780	5.53
0.77447	5.53
0.79113	5.53
0.80780	5.53
0.82447	5.53
0.84113	5.53
0.85780	5.53
0.87447	5.53
0.89113	5.53
0.90780	5.53
0.92447	5.53
0.94113	5.53
0.95780	5.53
0.97447	5.53
0.99113	5.53
1.00780	5.53
1.02447	5.53
1.04113	5.53
1.05780	5.53
1.07447	5.53
1.09113	5.53
1.10780	5.53
1.12447	5.53
1.14113	5.53
1.15780	5.53
1.17447	5.53
1.19113	5.53
1.20780	5.53
1.22447	5.53
1.24113	5.53
1.25780	5.53
1.27447	5.53
1.29113	5.53
1.30780	5.53
1.32447	5.53
1.34113	5.53
1.35780	5.53
1.37447	5.53
1.39113	5.53
1.40780	5.53
1.42447	5.53
1.44113	5.53
1.45780	5.53
1.47447	5.53
1.49113	5.53
1.50780	5.53
1.52447	5.53
1.54113	5.53
1.55780	5.53
1.57447	5.53
1.59113	5.53
1.60780	5.53
1.62447	5.52
1.64113	5.52
1.65780	5.51
1.67447	5.50
1.69113	5.49
1.70780	5.48
1.72447	5.47
1.74113	5.46
1.75780	5.45
1.77447	5.44
1.79113	5.43
1.80780	5.42
1.82447	5.41
1.84113	5.40
1.85780	5.39
1.87447	5.38
1.89113	5.37
1.90780	5.36
1.92447	5.35
1.94113	5.34
1.95780	5.33
1.97447	5.32
1.99113	5.31
2.00780	5.30
2.02447	5.29
2.04113	5.28
2.05780	5.27
2.07447	5.26
2.09113	5.25
2.10780	5.24
2.12447	5.23
2.14113	5.22
2.15780	5.21
2.17447	5.20
2.19113	5.19
2.20780	5.18
2.22447	5.17
2.24113	5.17
2.25780	5.16
2.27447	5.15
2.29113	5.14
2.30780	5.13
2.32447	5.12
2.34113	5.11
2.35780	5.10
2.37447	5.10
2.39113	5.09
2.40780	5.10
2.42447	5.10
2.44113	5.10
2.45780	5.10
2.47447	5.09
2.49113	5.09
2.50780	5.09
2.52447	5.09
2.54113	5.09
2.55780	5.09
2.57447	5.09
2.59113	5.09
2.60780	5.09
2.62447	5.09
2.64113	5.09
2.65780	5.09
2.67447	5.09
2.69113	5.09
2.70780	5.09
2.72447	5.09
2.74113	5.09
2.75780	5.09
2.77447	5.09
2.79113	5.09
2.80780	5.09
2.82447	5.09
2.84113	5.09
2.85780	5.09
2.87447	5.09
2.89113	5.09
2.90780	5.09
2.92447	5.09
2.94113	5.09
2.95780	5.09
2.97447	5.09
2.99113	5.09
3.00780	5.09
3.02447	5.09
3.04113	5.09
3.05780	5.09
3.07447	5.09
3.09113	5.09
3.10780	5.08
3.12447	5.08
3.14113	5.08
3.15780	5.08
3.17447	5.08
3.19113	5.08
3.20780	5.08
3.22447	5.08
3.24113	5.08
3.25780	5.08
3.27447	5.08
3.29113	5.08
3.30780	5.08
3.32447	5.08
3.34113	5.08
3.35780	5.08
3.37447	5.08
3.39113	5.08
3.40780	5.08
3.42447	5.08
3.44113	5.08
3.45780	5.08
3.47447	5.08
3.49113	5.08
3.50780	5.08
3.52447	5.08
3.54113	5.08
3.55780	5.08
3.57447	5.08
3.59113	5.08
3.60780	5.08
3.62447	5.08
3.64113	5.08
3.65780	5.08
3.67447	5.08
3.69113	5.09
3.70780	5.09
3.72447	5.09
3.74113	5.09
3.75780	5.09
3.77447	5.09
3.79113	5.09
3.80780	5.09
3.82447	5.09
3.84113	5.09
3.85780	5.09
3.87447	5.09
3.89113	5.09
3.90780	5.09
3.92447	5.09
3.94113	5.09
3.95780	5.09
3.97447	5.09
3.99113	5.09

[Status Trace (Linear Velocity)]
Interval(msec)	1000
# of Points	240
Start Time(min)	0.008
End Time(min)	3.991
Intensity Units	
Intensity Multiplier	1
R.Time (min)	Intensity
0.00780	39.02
0.02447	37.28
0.04113	38.41
0.05780	39.85
0.07447	39.90
0.09113	39.06
0.10780	39.00
0.12447	39.02
0.14113	39.02
0.15780	39.02
0.17447	39.02
0.19113	39.02
0.20780	39.02
0.22447	39.02
0.24113	39.01
0.25780	39.02
0.27447	39.02
0.29113	39.02
0.30780	39.02
0.32447	39.02
0.34113	39.02
0.35780	39.02
0.37447	39.02
0.39113	39.02
0.40780	39.02
0.42447	39.02
0.44113	39.02
0.45780	39.02
0.47447	39.02
0.49113	39.02
0.50780	39.02
0.52447	39.02
0.54113	39.02
0.55780	39.02
0.57447	39.02
0.59113	39.02
0.60780	39.02
0.62447	39.02
0.64113	39.02
0.65780	39.02
0.67447	39.02
0.69113	39.02
0.70780	39.02
0.72447	39.02
0.74113	39.02
0.75780	39.02
0.77447	39.02
0.79113	39.02
0.80780	39.02
0.82447	39.02
0.84113	39.02
0.85780	39.02
0.87447	39.02
0.89113	39.02
0.90780	39.02
0.92447	39.02
0.94113	39.02
0.95780	39.02
0.97447	39.02
0.99113	39.02
1.00780	39.02
1.02447	39.02
1.04113	39.02
1.05780	39.02
1.07447	39.02
1.09113	39.02
1.10780	39.02
1.12447	39.02
1.14113	39.02
1.15780	39.02
1.17447	39.02
1.19113	39.02
1.20780	39.02
1.22447	39.02
1.24113	39.02
1.25780	39.02
1.27447	39.02
1.29113	39.02
1.30780	39.02
1.32447	39.02
1.34113	39.02
1.35780	39.02
1.37447	39.02
1.39113	39.02
1.40780	39.02
1.42447	39.02
1.44113	39.02
1.45780	39.02
1.47447	39.02
1.49113	39.02
1.50780	39.02
1.52447	39.02
1.54113	39.02
1.55780	39.02
1.57447	39.02
1.59113	39.02
1.60780	39.02
1.62447	39.00
1.64113	38.99
1.65780	38.96
1.67447	38.93
1.69113	38.89
1.70780	38.86
1.72447	38.83
1.74113	38.80
1.75780	38.77
1.77447	38.73
1.79113	38.70
1.80780	38.67
1.82447	38.64
1.84113	38.61
1.85780	38.58
1.87447	38.55
1.89113	38.52
1.90780	38.49
1.92447	38.45
1.94113	38.42
1.95780	38.39
1.97447	38.36
1.99113	38.33
2.00780	38.30
2.02447	38.27
2.04113	38.24
2.05780	38.21
2.07447	38.18
2.09113	38.15
2.10780	38.12
2.12447	38.09
2.14113	38.06
2.15780	38.03
2.17447	38.00
2.19113	37.97
2.20780	37.95
2.22447	37.92
2.24113	37.89
2.25780	37.86
2.27447	37.83
2.29113	37.80
2.30780	37.77
2.32447	37.74
2.34113	37.71
2.35780	37.68
2.37447	37.66
2.39113	37.66
2.40780	37.66
2.42447	37.66
2.44113	37.66
2.45780	37.66
2.47447	37.66
2.49113	37.66
2.50780	37.66
2.52447	37.65
2.54113	37.65
2.55780	37.66
2.57447	37.65
2.59113	37.65
2.60780	37.65
2.62447	37.65
2.64113	37.65
2.65780	37.65
2.67447	37.65
2.69113	37.65
2.70780	37.65
2.72447	37.64
2.74113	37.65
2.75780	37.65
2.77447	37.65
2.79113	37.65
2.80780	37.64
2.82447	37.64
2.84113	37.64
2.85780	37.64
2.87447	37.64
2.89113	37.64
2.90780	37.64
2.92447	37.64
2.94113	37.64
2.95780	37.64
2.97447	37.64
2.99113	37.64
3.00780	37.64
3.02447	37.64
3.04113	37.63
3.05780	37.63
3.07447	37.63
3.09113	37.63
3.10780	37.63
3.12447	37.63
3.14113	37.63
3.15780	37.63
3.17447	37.63
3.19113	37.63
3.20780	37.63
3.22447	37.63
3.24113	37.63
3.25780	37.63
3.27447	37.63
3.29113	37.63
3.30780	37.63
3.32447	37.63
3.34113	37.63
3.35780	37.63
3.37447	37.63
3.39113	37.63
3.40780	37.63
3.42447	37.63
3.44113	37.63
3.45780	37.63
3.47447	37.63
3.49113	37.63
3.50780	37.63
3.52447	37.63
3.54113	37.63
3.55780	37.63
3.57447	37.63
3.59113	37.63
3.60780	37.63
3.62447	37.63
3.64113	37.63
3.65780	37.63
3.67447	37.63
3.69113	37.63
3.70780	37.63
3.72447	37.63
3.74113	37.63
3.75780	37.63
3.77447	37.63
3.79113	37.63
3.80780	37.63
3.82447	37.63
3.84113	37.63
3.85780	37.63
3.87447	37.63
3.89113	37.63
3.90780	37.63
3.92447	37.63
3.94113	37.63
3.95780	37.63
3.97447	37.63
3.99113	37.63

