[Header]
Application Name	LabSolutions
Version	5.110
Data File Name	C:\Users\User\Desktop\GC Analyses\Jack\Nachusa Grasslands Sampling\T3 Timepoint July 12th\T3_07122022_065.gcd
Output Date	3/14/2023
Output Time	3:43:34 PM

[File Information]
Type	Data File
Generated	3/13/2023 9:44:35 PM
Generated by	System Administrator
Modified	3/13/2023 9:51:10 PM
Modified by	System Administrator

[Sample Information]
Operator Name	System Administrator
Acquired	3/13/2023 9:47:10 PM
Sample Type	0:Unknown
Level	0
Sample Name	065
Sample ID	065
ISTD Amount1	1
ISTD Amount2	1
ISTD Amount3	1
ISTD Amount4	1
ISTD Amount5	1
ISTD Amount6	1
ISTD Amount7	1
ISTD Amount8	1
ISTD Amount9	1
ISTD Amount10	1
ISTD Amount11	1
ISTD Amount12	1
ISTD Amount13	1
ISTD Amount14	1
ISTD Amount15	1
ISTD Amount16	1
ISTD Amount17	1
ISTD Amount18	1
ISTD Amount19	1
ISTD Amount20	1
ISTD Amount21	1
ISTD Amount22	1
ISTD Amount23	1
ISTD Amount24	1
ISTD Amount25	1
ISTD Amount26	1
ISTD Amount27	1
ISTD Amount28	1
ISTD Amount29	1
ISTD Amount30	1
ISTD Amount31	1
ISTD Amount32	1
Sample Amount	1
Dilution Factor	1
Vial#	64
Injection Volume	1
Injection Count	1
Bar Code	

[Original Files]
Data File	C:\Users\User\Desktop\GC Analyses\Jack\Nachusa Grasslands Sampling\T3 Timepoint July 12th\T3_07122022_065.gcd
Method File	C:\LabSolutions\Data\GHG_4min_2022\ghg3_togas_w_acet_4 min_new_int.gcm
Batch File	C:\LabSolutions\Data\AutoSamplerTesting\T3_07122022.gcb
Report Format File	c:\LabSolutions\System\DEFAULT.lsr

[File Description]


[Configuration]
Instrument Name	C0B7VH3-Instrument1
Instrument #	1
Line #	1
# of Detectors	3
Detector ID	DET#1	DET#2	DET#3
Detector Name	FID	PTCD	ECD
# of Channels	1	1	1

[Peak Table(Ch1)]
# of Peaks	3
Peak#	R.Time	I.Time	F.Time	Area	Height	A/H	Conc.	Mark	ID#	Name	k'	Plate #	Plate Ht.	Tailing	Resolution	Sep.Factor	Area Ratio	Height Ratio	Conc. %	Norm Conc.
1	1.454	1.355	1.505	1287	606	2.125	9.088	   	1	CO	0.000	18837	7.963	0.758	0.000	0.000	0	0	1.006	1.006
2	1.571	1.538	1.644	19602	9936	1.973	379.023	   	2	CH4	0.081	11592	12.940	1.161	2.330	0.000	0	0	41.955	41.955
3	2.000	1.949	2.312	2053192	986198	2.082	515.296	   	3	CO2	0.376	17485	8.579	1.187	7.218	4.656	0	0	57.039	57.039

[Peak Table(Ch2)]
# of Peaks	0

[Peak Table(Ch3)]
# of Peaks	5
Peak#	R.Time	I.Time	F.Time	Area	Height	A/H	Conc.	Mark	ID#	Name	k'	Plate #	Plate Ht.	Tailing	Resolution	Sep.Factor	Area Ratio	Height Ratio	Conc. %	Norm Conc.
1	2.462	2.271	2.510	2367	679	3.483	0.000	   			0.000	10244	14.643	0.000	0.000	0.000	0	0	0.000	0.000
2	2.528	2.510	2.583	1128	373	3.026	0.000	 V 			0.027	5939	25.258	0.000	0.578	0.000	0	0	0.000	0.000
3	2.609	2.583	2.689	640	158	4.061	0.000	 V 			0.060	1100	136.349	0.000	0.362	2.222	0	0	0.000	0.000
4	2.880	2.796	3.052	55357	14472	3.825	1.414	   	1	N2O	0.170	12735	11.779	1.542	1.302	2.850	0	0	100.000	100.000
5	3.368	3.162	3.995	18625	649	28.695	0.000	   	2	SF6	0.368	294	509.349	1.989	1.100	2.167	0	0	0.000	0.000

[Compound Results(Ch1)]
# of IDs	6
ID#	Name	R.Time	Area	Height	Conc.	Curve	3rd	2nd	1st	Constant	Area Ratio	Height Ratio	Conc. %	Norm Conc.
1	CO	1.454	1287	606	9.088	Linear	0.000000e+00	0.000000e+00	1.416423e+002	0.000000e+00	0	0	1.006	1.006
2	CH4	1.571	19602	9936	379.023	Linear	0.000000e+00	0.000000e+00	5.171738e+001	0.000000e+00	0	0	41.955	41.955
3	CO2	2.000	2053192	986198	515.296	Linear	0.000000e+00	0.000000e+00	3.984494e+003	0.000000e+00	0	0	57.039	57.039
4	Ethylene	0.000	0	0	0.000	Linear	0.000000e+00	0.000000e+00	0.000000e+00	0.000000e+00	0	0	0.000	0.000
5	Acetylene	0.000	0	0	0.000	Linear	0.000000e+00	0.000000e+00	0.000000e+00	0.000000e+00	0	0	0.000	0.000
6	Ethane	0.000	0	0	0.000	Linear	0.000000e+00	0.000000e+00	0.000000e+00	0.000000e+00	0	0	0.000	0.000

[Compound Results(Ch2)]
# of IDs	5
ID#	Name	R.Time	Area	Height	Conc.	Curve	3rd	2nd	1st	Constant	Area Ratio	Height Ratio	Conc. %	Norm Conc.
1	Hydrogen	0.000	0	0	0.000	Linear	0.000000e+00	0.000000e+00	0.000000e+00	0.000000e+00	0	0	0.000	0.000
2	Oxygen	0.000	0	0	0.000	Linear	0.000000e+00	0.000000e+00	0.000000e+00	0.000000e+00	0	0	0.000	0.000
3	Nitrogen	0.000	0	0	0.000	Linear	0.000000e+00	0.000000e+00	0.000000e+00	0.000000e+00	0	0	0.000	0.000
4	Methane	0.000	0	0	0.000	Linear	0.000000e+00	0.000000e+00	0.000000e+00	0.000000e+00	0	0	0.000	0.000
5	Carbon Monoxide	0.000	0	0	0.000	Linear	0.000000e+00	0.000000e+00	0.000000e+00	0.000000e+00	0	0	0.000	0.000

[Compound Results(Ch3)]
# of IDs	2
ID#	Name	R.Time	Area	Height	Conc.	Curve	3rd	2nd	1st	Constant	Area Ratio	Height Ratio	Conc. %	Norm Conc.
1	N2O	2.880	55357	14472	1.414	Linear	0.000000e+00	0.000000e+00	3.915173e+004	0.000000e+00	0	0	100.000	100.000
2	SF6	3.368	18625	649	0.000	Linear	0.000000e+00	0.000000e+00	0.000000e+00	0.000000e+00	0	0	0.000	0.000

[Group Results(Ch1)]
# of Groups	0

[Group Results(Ch2)]
# of Groups	0

[Group Results(Ch3)]
# of Groups	0

[Chromatogram (Ch1)]
Interval(msec)	220
# of Points	1091
Start Time(min)	0.002
End Time(min)	3.998
R.Time (min)	Intensity
0.00167	20
0.00533	14
0.00900	8
0.01267	-0
0.01633	-8
0.02000	-15
0.02367	-17
0.02733	-13
0.03100	-6
0.03467	1
0.03833	8
0.04200	14
0.04567	23
0.04933	30
0.05300	35
0.05667	35
0.06033	35
0.06400	30
0.06767	22
0.07133	15
0.07500	13
0.07867	10
0.08233	7
0.08600	3
0.08967	5
0.09333	12
0.09700	22
0.10067	31
0.10433	36
0.10800	34
0.11167	29
0.11533	22
0.11900	18
0.12267	20
0.12633	26
0.13000	29
0.13367	29
0.13733	30
0.14100	33
0.14467	39
0.14833	43
0.15200	41
0.15567	40
0.15933	43
0.16300	45
0.16667	44
0.17033	44
0.17400	40
0.17767	34
0.18133	27
0.18500	19
0.18867	15
0.19233	16
0.19600	20
0.19967	23
0.20333	27
0.20700	33
0.21067	36
0.21433	30
0.21800	19
0.22167	14
0.22533	15
0.22900	19
0.23267	24
0.23633	30
0.24000	33
0.24367	34
0.24733	36
0.25100	38
0.25467	36
0.25833	32
0.26200	34
0.26567	42
0.26933	52
0.27300	58
0.27667	57
0.28033	54
0.28400	51
0.28767	51
0.29133	46
0.29500	40
0.29867	33
0.30233	28
0.30600	27
0.30967	30
0.31333	41
0.31700	55
0.32067	66
0.32433	70
0.32800	69
0.33167	68
0.33533	70
0.33900	67
0.34267	61
0.34633	63
0.35000	69
0.35367	76
0.35733	79
0.36100	79
0.36467	81
0.36833	83
0.37200	85
0.37567	82
0.37933	72
0.38300	58
0.38667	48
0.39033	45
0.39400	46
0.39767	49
0.40133	54
0.40500	61
0.40867	63
0.41233	60
0.41600	56
0.41967	53
0.42333	50
0.42700	43
0.43067	44
0.43433	48
0.43800	48
0.44167	42
0.44533	33
0.44900	26
0.45267	20
0.45633	20
0.46000	25
0.46367	31
0.46733	34
0.47100	35
0.47467	40
0.47833	43
0.48200	45
0.48567	42
0.48933	38
0.49300	37
0.49667	36
0.50033	31
0.50400	28
0.50767	29
0.51133	35
0.51500	40
0.51867	45
0.52233	48
0.52600	46
0.52967	38
0.53333	24
0.53700	12
0.54067	7
0.54433	8
0.54800	16
0.55167	25
0.55533	30
0.55900	33
0.56267	33
0.56633	27
0.57000	19
0.57367	12
0.57733	11
0.58100	13
0.58467	15
0.58833	15
0.59200	14
0.59567	15
0.59933	15
0.60300	17
0.60667	20
0.61033	22
0.61400	24
0.61767	21
0.62133	16
0.62500	14
0.62867	15
0.63233	20
0.63600	28
0.63967	33
0.64333	39
0.64700	44
0.65067	44
0.65433	40
0.65800	31
0.66167	23
0.66533	16
0.66900	12
0.67267	10
0.67633	12
0.68000	17
0.68367	18
0.68733	16
0.69100	13
0.69467	14
0.69833	16
0.70200	20
0.70567	24
0.70933	31
0.71300	35
0.71667	32
0.72033	29
0.72400	28
0.72767	26
0.73133	27
0.73500	35
0.73867	43
0.74233	46
0.74600	47
0.74967	45
0.75333	39
0.75700	32
0.76067	30
0.76433	28
0.76800	23
0.77167	19
0.77533	11
0.77900	5
0.78267	2
0.78633	9
0.79000	21
0.79367	31
0.79733	37
0.80100	42
0.80467	44
0.80833	39
0.81200	30
0.81567	27
0.81933	27
0.82300	34
0.82667	41
0.83033	48
0.83400	46
0.83767	34
0.84133	18
0.84500	1
0.84867	-13
0.85233	-21
0.85600	-21
0.85967	-11
0.86333	2
0.86700	13
0.87067	23
0.87433	32
0.87800	39
0.88167	44
0.88533	42
0.88900	37
0.89267	28
0.89633	19
0.90000	12
0.90367	7
0.90733	7
0.91100	15
0.91467	25
0.91833	31
0.92200	33
0.92567	34
0.92933	34
0.93300	35
0.93667	33
0.94033	28
0.94400	25
0.94767	24
0.95133	24
0.95500	24
0.95867	25
0.96233	29
0.96600	34
0.96967	33
0.97333	24
0.97700	13
0.98067	8
0.98433	9
0.98800	19
0.99167	32
0.99533	46
0.99900	54
1.00267	52
1.00633	43
1.01000	33
1.01367	27
1.01733	23
1.02100	22
1.02467	26
1.02833	36
1.03200	46
1.03567	49
1.03933	49
1.04300	46
1.04667	43
1.05033	42
1.05400	39
1.05767	32
1.06133	21
1.06500	16
1.06867	14
1.07233	9
1.07600	-0
1.07967	-11
1.08333	-18
1.08700	-20
1.09067	-15
1.09433	-6
1.09800	1
1.10167	4
1.10533	9
1.10900	13
1.11267	14
1.11633	15
1.12000	21
1.12367	33
1.12733	44
1.13100	52
1.13467	56
1.13833	53
1.14200	42
1.14567	27
1.14933	12
1.15300	0
1.15667	-4
1.16033	-6
1.16400	-9
1.16767	-5
1.17133	6
1.17500	17
1.17867	25
1.18233	28
1.18600	27
1.18967	26
1.19333	22
1.19700	19
1.20067	17
1.20433	17
1.20800	16
1.21167	19
1.21533	21
1.21900	21
1.22267	19
1.22633	25
1.23000	34
1.23367	43
1.23733	48
1.24100	45
1.24467	35
1.24833	27
1.25200	25
1.25567	27
1.25933	34
1.26300	46
1.26667	55
1.27033	60
1.27400	63
1.27767	67
1.28133	65
1.28500	60
1.28867	57
1.29233	54
1.29600	51
1.29967	52
1.30333	58
1.30700	64
1.31067	72
1.31433	86
1.31800	101
1.32167	109
1.32533	110
1.32900	98
1.33267	80
1.33633	63
1.34000	48
1.34367	36
1.34733	33
1.35100	34
1.35467	34
1.35833	36
1.36200	41
1.36567	44
1.36933	43
1.37300	42
1.37667	38
1.38033	36
1.38400	35
1.38767	35
1.39133	36
1.39500	40
1.39867	42
1.40233	46
1.40600	51
1.40967	51
1.41333	49
1.41700	46
1.42067	46
1.42433	48
1.42800	50
1.43167	52
1.43533	50
1.43900	52
1.44267	82
1.44633	190
1.45000	363
1.45367	474
1.45733	468
1.46100	370
1.46467	228
1.46833	82
1.47200	-29
1.47567	-85
1.47933	-102
1.48300	-107
1.48667	-112
1.49033	-126
1.49400	-148
1.49767	-171
1.50133	-195
1.50500	-217
1.50867	-231
1.51233	-231
1.51600	-223
1.51967	-207
1.52333	-187
1.52700	-176
1.53067	-172
1.53433	-168
1.53800	-131
1.54167	65
1.54533	686
1.54900	1954
1.55267	3763
1.55633	5723
1.56000	7465
1.56367	8801
1.56733	9630
1.57100	9825
1.57467	9273
1.57833	8056
1.58200	6471
1.58567	4863
1.58933	3465
1.59300	2371
1.59667	1574
1.60033	1016
1.60400	637
1.60767	390
1.61133	232
1.61500	133
1.61867	71
1.62233	28
1.62600	-3
1.62967	-26
1.63333	-43
1.63700	-56
1.64067	-65
1.64433	-69
1.64800	-70
1.65167	-67
1.65533	-62
1.65900	-57
1.66267	-51
1.66633	-48
1.67000	-47
1.67367	-48
1.67733	-48
1.68100	-49
1.68467	-47
1.68833	-45
1.69200	-41
1.69567	-38
1.69933	-38
1.70300	-38
1.70667	-29
1.71033	-17
1.71400	-11
1.71767	-10
1.72133	-17
1.72500	-24
1.72867	-25
1.73233	-22
1.73600	-18
1.73967	-23
1.74333	-28
1.74700	-25
1.75067	-19
1.75433	-13
1.75800	-12
1.76167	-16
1.76533	-18
1.76900	-17
1.77267	-16
1.77633	-16
1.78000	-19
1.78367	-22
1.78733	-27
1.79100	-28
1.79467	-25
1.79833	-22
1.80200	-18
1.80567	-8
1.80933	5
1.81300	15
1.81667	21
1.82033	18
1.82400	13
1.82767	10
1.83133	5
1.83500	4
1.83867	1
1.84233	-1
1.84600	-1
1.84967	-1
1.85333	6
1.85700	14
1.86067	18
1.86433	17
1.86800	13
1.87167	10
1.87533	10
1.87900	16
1.88267	24
1.88633	33
1.89000	40
1.89367	46
1.89733	48
1.90100	43
1.90467	37
1.90833	31
1.91200	23
1.91567	14
1.91933	7
1.92300	-1
1.92667	-8
1.93033	-9
1.93400	-7
1.93767	-2
1.94133	5
1.94500	13
1.94867	21
1.95233	34
1.95600	115
1.95967	615
1.96333	3141
1.96700	12919
1.97067	41866
1.97433	108040
1.97800	225787
1.98167	391209
1.98533	579754
1.98900	758449
1.99267	897561
1.99633	976682
2.00000	986267
2.00367	928531
2.00733	817754
2.01100	676711
2.01467	529825
2.01833	396163
2.02200	285904
2.02567	201243
2.02933	139516
2.03300	96109
2.03667	66301
2.04033	46125
2.04400	32564
2.04767	23450
2.05133	17294
2.05500	13096
2.05867	10190
2.06233	8138
2.06600	6649
2.06967	5546
2.07333	4714
2.07700	4077
2.08067	3580
2.08433	3177
2.08800	2845
2.09167	2569
2.09533	2331
2.09900	2128
2.10267	1955
2.10633	1809
2.11000	1686
2.11367	1579
2.11733	1485
2.12100	1407
2.12467	1335
2.12833	1267
2.13200	1203
2.13567	1145
2.13933	1091
2.14300	1038
2.14667	989
2.15033	944
2.15400	906
2.15767	871
2.16133	839
2.16500	811
2.16867	786
2.17233	764
2.17600	741
2.17967	714
2.18333	690
2.18700	672
2.19067	657
2.19433	643
2.19800	632
2.20167	621
2.20533	609
2.20900	594
2.21267	578
2.21633	559
2.22000	545
2.22367	535
2.22733	527
2.23100	516
2.23467	503
2.23833	484
2.24200	470
2.24567	459
2.24933	451
2.25300	445
2.25667	439
2.26033	430
2.26400	424
2.26767	422
2.27133	423
2.27500	423
2.27867	422
2.28233	420
2.28600	419
2.28967	419
2.29333	417
2.29700	411
2.30067	400
2.30433	388
2.30800	379
2.31167	369
2.31533	361
2.31900	357
2.32267	357
2.32633	362
2.33000	369
2.33367	370
2.33733	366
2.34100	369
2.34467	377
2.34833	381
2.35200	377
2.35567	367
2.35933	357
2.36300	352
2.36667	347
2.37033	342
2.37400	343
2.37767	344
2.38133	341
2.38500	334
2.38867	327
2.39233	320
2.39600	316
2.39967	314
2.40333	314
2.40700	315
2.41067	318
2.41433	318
2.41800	316
2.42167	312
2.42533	305
2.42900	300
2.43267	303
2.43633	311
2.44000	317
2.44367	320
2.44733	317
2.45100	311
2.45467	305
2.45833	300
2.46200	296
2.46567	292
2.46933	292
2.47300	294
2.47667	293
2.48033	290
2.48400	287
2.48767	288
2.49133	287
2.49500	290
2.49867	296
2.50233	297
2.50600	296
2.50967	299
2.51333	305
2.51700	313
2.52067	322
2.52433	330
2.52800	334
2.53167	336
2.53533	333
2.53900	322
2.54267	310
2.54633	298
2.55000	287
2.55367	280
2.55733	274
2.56100	272
2.56467	276
2.56833	286
2.57200	297
2.57567	302
2.57933	303
2.58300	300
2.58667	297
2.59033	292
2.59400	291
2.59767	293
2.60133	295
2.60500	298
2.60867	297
2.61233	293
2.61600	293
2.61967	295
2.62333	300
2.62700	310
2.63067	321
2.63433	329
2.63800	331
2.64167	327
2.64533	317
2.64900	307
2.65267	302
2.65633	302
2.66000	303
2.66367	306
2.66733	310
2.67100	308
2.67467	305
2.67833	300
2.68200	295
2.68567	294
2.68933	298
2.69300	309
2.69667	319
2.70033	323
2.70400	325
2.70767	328
2.71133	329
2.71500	330
2.71867	328
2.72233	328
2.72600	335
2.72967	345
2.73333	348
2.73700	349
2.74067	349
2.74433	345
2.74800	343
2.75167	343
2.75533	335
2.75900	324
2.76267	317
2.76633	313
2.77000	314
2.77367	318
2.77733	324
2.78100	328
2.78467	331
2.78833	334
2.79200	332
2.79567	327
2.79933	323
2.80300	320
2.80667	316
2.81033	314
2.81400	313
2.81767	318
2.82133	325
2.82500	332
2.82867	340
2.83233	348
2.83600	356
2.83967	359
2.84333	361
2.84700	361
2.85067	356
2.85433	352
2.85800	350
2.86167	349
2.86533	351
2.86900	352
2.87267	354
2.87633	352
2.88000	349
2.88367	348
2.88733	345
2.89100	341
2.89467	340
2.89833	340
2.90200	344
2.90567	351
2.90933	352
2.91300	351
2.91667	343
2.92033	333
2.92400	326
2.92767	322
2.93133	323
2.93500	329
2.93867	335
2.94233	339
2.94600	343
2.94967	344
2.95333	342
2.95700	343
2.96067	347
2.96433	354
2.96800	358
2.97167	359
2.97533	357
2.97900	356
2.98267	359
2.98633	361
2.99000	366
2.99367	373
2.99733	383
3.00100	386
3.00467	376
3.00833	364
3.01200	361
3.01567	360
3.01933	359
3.02300	352
3.02667	344
3.03033	337
3.03400	334
3.03767	337
3.04133	345
3.04500	356
3.04867	363
3.05233	365
3.05600	365
3.05967	363
3.06333	359
3.06700	356
3.07067	349
3.07433	339
3.07800	331
3.08167	329
3.08533	333
3.08900	338
3.09267	342
3.09633	345
3.10000	353
3.10367	360
3.10733	362
3.11100	362
3.11467	362
3.11833	361
3.12200	358
3.12567	351
3.12933	343
3.13300	334
3.13667	329
3.14033	330
3.14400	336
3.14767	342
3.15133	343
3.15500	345
3.15867	354
3.16233	362
3.16600	362
3.16967	354
3.17333	339
3.17700	325
3.18067	316
3.18433	311
3.18800	309
3.19167	309
3.19533	311
3.19900	310
3.20267	309
3.20633	311
3.21000	321
3.21367	333
3.21733	338
3.22100	338
3.22467	337
3.22833	339
3.23200	346
3.23567	355
3.23933	360
3.24300	363
3.24667	360
3.25033	355
3.25400	351
3.25767	344
3.26133	334
3.26500	327
3.26867	325
3.27233	327
3.27600	328
3.27967	328
3.28333	330
3.28700	333
3.29067	333
3.29433	333
3.29800	331
3.30167	326
3.30533	323
3.30900	323
3.31267	328
3.31633	331
3.32000	330
3.32367	324
3.32733	318
3.33100	316
3.33467	316
3.33833	318
3.34200	321
3.34567	320
3.34933	318
3.35300	318
3.35667	323
3.36033	334
3.36400	345
3.36767	348
3.37133	348
3.37500	345
3.37867	341
3.38233	336
3.38600	328
3.38967	319
3.39333	312
3.39700	309
3.40067	307
3.40433	306
3.40800	308
3.41167	310
3.41533	313
3.41900	314
3.42267	314
3.42633	310
3.43000	310
3.43367	312
3.43733	317
3.44100	323
3.44467	322
3.44833	318
3.45200	314
3.45567	311
3.45933	308
3.46300	306
3.46667	306
3.47033	309
3.47400	311
3.47767	314
3.48133	319
3.48500	324
3.48867	324
3.49233	326
3.49600	327
3.49967	323
3.50333	321
3.50700	322
3.51067	320
3.51433	316
3.51800	310
3.52167	303
3.52533	298
3.52900	300
3.53267	303
3.53633	306
3.54000	308
3.54367	307
3.54733	299
3.55100	292
3.55467	287
3.55833	285
3.56200	285
3.56567	285
3.56933	286
3.57300	286
3.57667	290
3.58033	297
3.58400	304
3.58767	311
3.59133	318
3.59500	321
3.59867	320
3.60233	316
3.60600	306
3.60967	297
3.61333	289
3.61700	278
3.62067	266
3.62433	258
3.62800	257
3.63167	262
3.63533	263
3.63900	260
3.64267	257
3.64633	255
3.65000	255
3.65367	258
3.65733	262
3.66100	266
3.66467	270
3.66833	276
3.67200	280
3.67567	280
3.67933	282
3.68300	285
3.68667	282
3.69033	274
3.69400	267
3.69767	265
3.70133	273
3.70500	284
3.70867	292
3.71233	294
3.71600	291
3.71967	280
3.72333	263
3.72700	248
3.73067	244
3.73433	250
3.73800	254
3.74167	255
3.74533	257
3.74900	257
3.75267	254
3.75633	254
3.76000	259
3.76367	262
3.76733	261
3.77100	256
3.77467	253
3.77833	254
3.78200	258
3.78567	262
3.78933	261
3.79300	252
3.79667	243
3.80033	240
3.80400	242
3.80767	244
3.81133	245
3.81500	247
3.81867	254
3.82233	263
3.82600	270
3.82967	273
3.83333	270
3.83700	265
3.84067	261
3.84433	256
3.84800	251
3.85167	246
3.85533	244
3.85900	247
3.86267	248
3.86633	252
3.87000	251
3.87367	248
3.87733	252
3.88100	259
3.88467	260
3.88833	259
3.89200	259
3.89567	256
3.89933	247
3.90300	239
3.90667	232
3.91033	229
3.91400	229
3.91767	233
3.92133	240
3.92500	246
3.92867	248
3.93233	252
3.93600	255
3.93967	257
3.94333	259
3.94700	261
3.95067	262
3.95433	260
3.95800	258
3.96167	254
3.96533	250
3.96900	242
3.97267	233
3.97633	227
3.98000	226
3.98367	229
3.98733	229
3.99100	228
3.99467	227
3.99833	227

[Chromatogram (Ch2)]
Interval(msec)	220
# of Points	1091
Start Time(min)	0.002
End Time(min)	3.998
R.Time (min)	Intensity
0.00167	1
0.00533	1
0.00900	1
0.01267	2
0.01633	1
0.02000	1
0.02367	1
0.02733	0
0.03100	-0
0.03467	-0
0.03833	-0
0.04200	-0
0.04567	-0
0.04933	0
0.05300	0
0.05667	1
0.06033	1
0.06400	1
0.06767	1
0.07133	1
0.07500	1
0.07867	1
0.08233	1
0.08600	1
0.08967	2
0.09333	2
0.09700	2
0.10067	2
0.10433	2
0.10800	3
0.11167	3
0.11533	3
0.11900	3
0.12267	3
0.12633	3
0.13000	3
0.13367	3
0.13733	4
0.14100	4
0.14467	3
0.14833	3
0.15200	3
0.15567	3
0.15933	3
0.16300	3
0.16667	3
0.17033	3
0.17400	3
0.17767	3
0.18133	3
0.18500	3
0.18867	3
0.19233	3
0.19600	2
0.19967	2
0.20333	2
0.20700	2
0.21067	2
0.21433	2
0.21800	2
0.22167	1
0.22533	1
0.22900	1
0.23267	0
0.23633	-0
0.24000	-0
0.24367	-0
0.24733	-1
0.25100	-1
0.25467	-1
0.25833	-1
0.26200	-1
0.26567	-0
0.26933	-1
0.27300	-1
0.27667	-1
0.28033	-1
0.28400	-1
0.28767	-1
0.29133	-2
0.29500	-2
0.29867	-1
0.30233	-1
0.30600	-1
0.30967	-1
0.31333	-0
0.31700	-0
0.32067	-0
0.32433	0
0.32800	0
0.33167	0
0.33533	1
0.33900	1
0.34267	1
0.34633	1
0.35000	1
0.35367	1
0.35733	1
0.36100	1
0.36467	1
0.36833	1
0.37200	1
0.37567	1
0.37933	1
0.38300	1
0.38667	1
0.39033	1
0.39400	1
0.39767	1
0.40133	1
0.40500	1
0.40867	1
0.41233	1
0.41600	1
0.41967	2
0.42333	2
0.42700	2
0.43067	2
0.43433	2
0.43800	2
0.44167	2
0.44533	2
0.44900	2
0.45267	3
0.45633	3
0.46000	3
0.46367	3
0.46733	4
0.47100	4
0.47467	4
0.47833	5
0.48200	5
0.48567	5
0.48933	5
0.49300	5
0.49667	4
0.50033	4
0.50400	4
0.50767	3
0.51133	3
0.51500	3
0.51867	2
0.52233	2
0.52600	2
0.52967	1
0.53333	1
0.53700	1
0.54067	1
0.54433	1
0.54800	1
0.55167	1
0.55533	1
0.55900	1
0.56267	0
0.56633	0
0.57000	0
0.57367	0
0.57733	-0
0.58100	-0
0.58467	-1
0.58833	-1
0.59200	-1
0.59567	-1
0.59933	-1
0.60300	-1
0.60667	-0
0.61033	-0
0.61400	-0
0.61767	-1
0.62133	-1
0.62500	-1
0.62867	-1
0.63233	-1
0.63600	-2
0.63967	-2
0.64333	-1
0.64700	-1
0.65067	-1
0.65433	-1
0.65800	-1
0.66167	-0
0.66533	0
0.66900	0
0.67267	0
0.67633	0
0.68000	0
0.68367	0
0.68733	0
0.69100	-0
0.69467	-0
0.69833	-1
0.70200	-1
0.70567	-2
0.70933	-2
0.71300	-2
0.71667	-2
0.72033	-2
0.72400	-2
0.72767	-1
0.73133	-1
0.73500	-0
0.73867	0
0.74233	1
0.74600	1
0.74967	2
0.75333	2
0.75700	3
0.76067	3
0.76433	3
0.76800	3
0.77167	3
0.77533	3
0.77900	2
0.78267	2
0.78633	1
0.79000	1
0.79367	1
0.79733	0
0.80100	1
0.80467	1
0.80833	1
0.81200	1
0.81567	1
0.81933	1
0.82300	1
0.82667	1
0.83033	1
0.83400	1
0.83767	1
0.84133	1
0.84500	1
0.84867	1
0.85233	1
0.85600	1
0.85967	0
0.86333	-0
0.86700	-1
0.87067	-1
0.87433	-2
0.87800	-2
0.88167	-2
0.88533	-3
0.88900	-3
0.89267	-3
0.89633	-3
0.90000	-3
0.90367	-2
0.90733	-3
0.91100	-3
0.91467	-3
0.91833	-3
0.92200	-3
0.92567	-2
0.92933	-2
0.93300	-2
0.93667	-1
0.94033	-1
0.94400	-1
0.94767	-1
0.95133	-1
0.95500	-1
0.95867	-1
0.96233	-1
0.96600	-1
0.96967	-1
0.97333	-0
0.97700	-0
0.98067	0
0.98433	0
0.98800	1
0.99167	1
0.99533	1
0.99900	1
1.00267	2
1.00633	2
1.01000	2
1.01367	2
1.01733	3
1.02100	3
1.02467	3
1.02833	3
1.03200	3
1.03567	2
1.03933	2
1.04300	2
1.04667	2
1.05033	1
1.05400	1
1.05767	1
1.06133	0
1.06500	-0
1.06867	-0
1.07233	0
1.07600	1
1.07967	1
1.08333	1
1.08700	1
1.09067	1
1.09433	1
1.09800	1
1.10167	1
1.10533	1
1.10900	1
1.11267	1
1.11633	1
1.12000	1
1.12367	2
1.12733	2
1.13100	2
1.13467	2
1.13833	2
1.14200	2
1.14567	2
1.14933	2
1.15300	2
1.15667	2
1.16033	2
1.16400	2
1.16767	2
1.17133	2
1.17500	2
1.17867	2
1.18233	2
1.18600	1
1.18967	1
1.19333	1
1.19700	1
1.20067	0
1.20433	0
1.20800	-0
1.21167	-0
1.21533	-0
1.21900	-0
1.22267	-0
1.22633	-1
1.23000	-1
1.23367	-1
1.23733	-1
1.24100	-1
1.24467	-1
1.24833	-1
1.25200	-1
1.25567	-0
1.25933	-0
1.26300	-0
1.26667	-0
1.27033	-0
1.27400	-1
1.27767	-1
1.28133	-1
1.28500	-1
1.28867	-2
1.29233	-2
1.29600	-2
1.29967	-2
1.30333	-2
1.30700	-2
1.31067	-1
1.31433	-2
1.31800	-2
1.32167	-2
1.32533	-2
1.32900	-2
1.33267	-2
1.33633	-2
1.34000	-2
1.34367	-2
1.34733	-2
1.35100	-2
1.35467	-2
1.35833	-3
1.36200	-3
1.36567	-3
1.36933	-3
1.37300	-3
1.37667	-3
1.38033	-3
1.38400	-2
1.38767	-2
1.39133	-2
1.39500	-1
1.39867	-0
1.40233	0
1.40600	0
1.40967	0
1.41333	0
1.41700	0
1.42067	0
1.42433	1
1.42800	1
1.43167	0
1.43533	0
1.43900	0
1.44267	0
1.44633	0
1.45000	0
1.45367	1
1.45733	1
1.46100	1
1.46467	0
1.46833	0
1.47200	0
1.47567	0
1.47933	-0
1.48300	-0
1.48667	-0
1.49033	-0
1.49400	-0
1.49767	-0
1.50133	-0
1.50500	-1
1.50867	-1
1.51233	-1
1.51600	-1
1.51967	-2
1.52333	-2
1.52700	-2
1.53067	-2
1.53433	-2
1.53800	-2
1.54167	-2
1.54533	-2
1.54900	-2
1.55267	-2
1.55633	-3
1.56000	-3
1.56367	-3
1.56733	-3
1.57100	-3
1.57467	-2
1.57833	-2
1.58200	-2
1.58567	-2
1.58933	-2
1.59300	-2
1.59667	-2
1.60033	-3
1.60400	-4
1.60767	-6
1.61133	-8
1.61500	-10
1.61867	-12
1.62233	-14
1.62600	-17
1.62967	-20
1.63333	-23
1.63700	-26
1.64067	-30
1.64433	-33
1.64800	-37
1.65167	-40
1.65533	-44
1.65900	-47
1.66267	-51
1.66633	-54
1.67000	-58
1.67367	-63
1.67733	-67
1.68100	-72
1.68467	-77
1.68833	-82
1.69200	-86
1.69567	-90
1.69933	-93
1.70300	-95
1.70667	-98
1.71033	-99
1.71400	-100
1.71767	-101
1.72133	-102
1.72500	-103
1.72867	-104
1.73233	-105
1.73600	-106
1.73967	-107
1.74333	-108
1.74700	-108
1.75067	-109
1.75433	-109
1.75800	-109
1.76167	-109
1.76533	-109
1.76900	-109
1.77267	-109
1.77633	-109
1.78000	-110
1.78367	-111
1.78733	-112
1.79100	-112
1.79467	-113
1.79833	-114
1.80200	-114
1.80567	-114
1.80933	-114
1.81300	-114
1.81667	-113
1.82033	-113
1.82400	-112
1.82767	-112
1.83133	-112
1.83500	-112
1.83867	-112
1.84233	-112
1.84600	-113
1.84967	-113
1.85333	-112
1.85700	-112
1.86067	-112
1.86433	-111
1.86800	-111
1.87167	-111
1.87533	-111
1.87900	-111
1.88267	-112
1.88633	-112
1.89000	-112
1.89367	-112
1.89733	-112
1.90100	-112
1.90467	-112
1.90833	-112
1.91200	-112
1.91567	-112
1.91933	-111
1.92300	-111
1.92667	-111
1.93033	-111
1.93400	-112
1.93767	-112
1.94133	-112
1.94500	-112
1.94867	-112
1.95233	-112
1.95600	-111
1.95967	-110
1.96333	-109
1.96700	-108
1.97067	-107
1.97433	-106
1.97800	-106
1.98167	-106
1.98533	-106
1.98900	-106
1.99267	-107
1.99633	-107
2.00000	-106
2.00367	-106
2.00733	-106
2.01100	-106
2.01467	-105
2.01833	-105
2.02200	-105
2.02567	-104
2.02933	-104
2.03300	-103
2.03667	-103
2.04033	-102
2.04400	-102
2.04767	-102
2.05133	-102
2.05500	-102
2.05867	-102
2.06233	-102
2.06600	-102
2.06967	-102
2.07333	-101
2.07700	-100
2.08067	-100
2.08433	-99
2.08800	-98
2.09167	-98
2.09533	-97
2.09900	-97
2.10267	-97
2.10633	-97
2.11000	-97
2.11367	-96
2.11733	-96
2.12100	-95
2.12467	-95
2.12833	-94
2.13200	-94
2.13567	-93
2.13933	-93
2.14300	-93
2.14667	-93
2.15033	-94
2.15400	-94
2.15767	-94
2.16133	-94
2.16500	-94
2.16867	-94
2.17233	-94
2.17600	-93
2.17967	-93
2.18333	-92
2.18700	-91
2.19067	-91
2.19433	-90
2.19800	-90
2.20167	-90
2.20533	-89
2.20900	-88
2.21267	-87
2.21633	-86
2.22000	-86
2.22367	-86
2.22733	-86
2.23100	-86
2.23467	-86
2.23833	-85
2.24200	-85
2.24567	-85
2.24933	-84
2.25300	-83
2.25667	-83
2.26033	-83
2.26400	-83
2.26767	-83
2.27133	-83
2.27500	-83
2.27867	-83
2.28233	-82
2.28600	-82
2.28967	-81
2.29333	-80
2.29700	-80
2.30067	-79
2.30433	-79
2.30800	-79
2.31167	-79
2.31533	-79
2.31900	-79
2.32267	-80
2.32633	-80
2.33000	-79
2.33367	-79
2.33733	-78
2.34100	-78
2.34467	-78
2.34833	-77
2.35200	-76
2.35567	-74
2.35933	-73
2.36300	-71
2.36667	-70
2.37033	-68
2.37400	-65
2.37767	-63
2.38133	-60
2.38500	-56
2.38867	-52
2.39233	-48
2.39600	-44
2.39967	-39
2.40333	-35
2.40700	-31
2.41067	-27
2.41433	-23
2.41800	-19
2.42167	-16
2.42533	-14
2.42900	-12
2.43267	-11
2.43633	-9
2.44000	-8
2.44367	-7
2.44733	-6
2.45100	-5
2.45467	-4
2.45833	-3
2.46200	-2
2.46567	-2
2.46933	-1
2.47300	0
2.47667	1
2.48033	2
2.48400	3
2.48767	4
2.49133	5
2.49500	6
2.49867	7
2.50233	8
2.50600	8
2.50967	9
2.51333	9
2.51700	9
2.52067	10
2.52433	11
2.52800	12
2.53167	13
2.53533	13
2.53900	13
2.54267	14
2.54633	14
2.55000	14
2.55367	14
2.55733	14
2.56100	14
2.56467	14
2.56833	14
2.57200	15
2.57567	16
2.57933	17
2.58300	17
2.58667	17
2.59033	17
2.59400	17
2.59767	16
2.60133	16
2.60500	17
2.60867	17
2.61233	18
2.61600	19
2.61967	20
2.62333	20
2.62700	21
2.63067	21
2.63433	21
2.63800	21
2.64167	21
2.64533	21
2.64900	21
2.65267	22
2.65633	22
2.66000	22
2.66367	22
2.66733	22
2.67100	22
2.67467	22
2.67833	22
2.68200	22
2.68567	22
2.68933	22
2.69300	22
2.69667	22
2.70033	22
2.70400	23
2.70767	23
2.71133	24
2.71500	25
2.71867	25
2.72233	26
2.72600	27
2.72967	27
2.73333	28
2.73700	28
2.74067	27
2.74433	27
2.74800	27
2.75167	26
2.75533	26
2.75900	26
2.76267	26
2.76633	26
2.77000	26
2.77367	26
2.77733	26
2.78100	26
2.78467	26
2.78833	27
2.79200	27
2.79567	27
2.79933	27
2.80300	27
2.80667	26
2.81033	26
2.81400	26
2.81767	27
2.82133	27
2.82500	27
2.82867	27
2.83233	27
2.83600	27
2.83967	26
2.84333	25
2.84700	22
2.85067	18
2.85433	11
2.85800	1
2.86167	-14
2.86533	-33
2.86900	-57
2.87267	-87
2.87633	-122
2.88000	-163
2.88367	-209
2.88733	-261
2.89100	-317
2.89467	-379
2.89833	-445
2.90200	-514
2.90567	-587
2.90933	-664
2.91300	-743
2.91667	-825
2.92033	-909
2.92400	-995
2.92767	-1083
2.93133	-1173
2.93500	-1264
2.93867	-1356
2.94233	-1441
2.94600	-1506
2.94967	-1540
2.95333	-1537
2.95700	-1499
2.96067	-1431
2.96433	-1342
2.96800	-1238
2.97167	-1128
2.97533	-1015
2.97900	-906
2.98267	-801
2.98633	-704
2.99000	-615
2.99367	-535
2.99733	-463
3.00100	-399
3.00467	-343
3.00833	-294
3.01200	-251
3.01567	-214
3.01933	-182
3.02300	-155
3.02667	-131
3.03033	-111
3.03400	-93
3.03767	-79
3.04133	-66
3.04500	-55
3.04867	-46
3.05233	-38
3.05600	-32
3.05967	-26
3.06333	-21
3.06700	-16
3.07067	-13
3.07433	-9
3.07800	-6
3.08167	-4
3.08533	-1
3.08900	1
3.09267	2
3.09633	4
3.10000	5
3.10367	7
3.10733	8
3.11100	9
3.11467	10
3.11833	11
3.12200	11
3.12567	12
3.12933	13
3.13300	13
3.13667	14
3.14033	14
3.14400	15
3.14767	15
3.15133	15
3.15500	15
3.15867	16
3.16233	16
3.16600	17
3.16967	17
3.17333	17
3.17700	17
3.18067	18
3.18433	18
3.18800	19
3.19167	19
3.19533	20
3.19900	20
3.20267	21
3.20633	21
3.21000	22
3.21367	22
3.21733	23
3.22100	23
3.22467	23
3.22833	23
3.23200	23
3.23567	23
3.23933	23
3.24300	23
3.24667	23
3.25033	23
3.25400	23
3.25767	23
3.26133	23
3.26500	23
3.26867	23
3.27233	23
3.27600	23
3.27967	23
3.28333	23
3.28700	23
3.29067	23
3.29433	23
3.29800	24
3.30167	24
3.30533	24
3.30900	24
3.31267	24
3.31633	24
3.32000	25
3.32367	25
3.32733	25
3.33100	25
3.33467	25
3.33833	25
3.34200	24
3.34567	24
3.34933	24
3.35300	24
3.35667	24
3.36033	24
3.36400	24
3.36767	23
3.37133	23
3.37500	23
3.37867	24
3.38233	24
3.38600	24
3.38967	25
3.39333	25
3.39700	26
3.40067	26
3.40433	27
3.40800	28
3.41167	28
3.41533	28
3.41900	29
3.42267	29
3.42633	29
3.43000	30
3.43367	30
3.43733	30
3.44100	30
3.44467	30
3.44833	30
3.45200	30
3.45567	30
3.45933	29
3.46300	29
3.46667	29
3.47033	29
3.47400	29
3.47767	29
3.48133	29
3.48500	30
3.48867	30
3.49233	30
3.49600	30
3.49967	30
3.50333	30
3.50700	30
3.51067	30
3.51433	30
3.51800	30
3.52167	30
3.52533	30
3.52900	30
3.53267	30
3.53633	30
3.54000	29
3.54367	29
3.54733	29
3.55100	28
3.55467	28
3.55833	28
3.56200	28
3.56567	27
3.56933	27
3.57300	27
3.57667	27
3.58033	27
3.58400	27
3.58767	27
3.59133	27
3.59500	27
3.59867	27
3.60233	27
3.60600	27
3.60967	27
3.61333	28
3.61700	28
3.62067	28
3.62433	28
3.62800	29
3.63167	29
3.63533	29
3.63900	29
3.64267	30
3.64633	30
3.65000	30
3.65367	29
3.65733	29
3.66100	29
3.66467	28
3.66833	28
3.67200	29
3.67567	29
3.67933	29
3.68300	29
3.68667	29
3.69033	29
3.69400	29
3.69767	29
3.70133	29
3.70500	29
3.70867	29
3.71233	29
3.71600	28
3.71967	28
3.72333	28
3.72700	28
3.73067	28
3.73433	28
3.73800	28
3.74167	28
3.74533	28
3.74900	28
3.75267	28
3.75633	28
3.76000	28
3.76367	28
3.76733	27
3.77100	27
3.77467	27
3.77833	27
3.78200	26
3.78567	26
3.78933	26
3.79300	26
3.79667	26
3.80033	25
3.80400	25
3.80767	25
3.81133	25
3.81500	25
3.81867	25
3.82233	25
3.82600	26
3.82967	26
3.83333	26
3.83700	26
3.84067	26
3.84433	26
3.84800	26
3.85167	26
3.85533	26
3.85900	26
3.86267	26
3.86633	26
3.87000	26
3.87367	26
3.87733	27
3.88100	27
3.88467	27
3.88833	27
3.89200	27
3.89567	28
3.89933	28
3.90300	28
3.90667	27
3.91033	27
3.91400	27
3.91767	27
3.92133	27
3.92500	27
3.92867	27
3.93233	27
3.93600	27
3.93967	27
3.94333	27
3.94700	27
3.95067	27
3.95433	27
3.95800	27
3.96167	28
3.96533	28
3.96900	28
3.97267	28
3.97633	28
3.98000	28
3.98367	29
3.98733	29
3.99100	29
3.99467	29
3.99833	28

[Chromatogram (Ch3)]
Interval(msec)	220
# of Points	1091
Start Time(min)	0.002
End Time(min)	3.998
R.Time (min)	Intensity
0.00167	-0
0.00533	-0
0.00900	0
0.01267	1
0.01633	0
0.02000	-1
0.02367	-1
0.02733	-0
0.03100	0
0.03467	1
0.03833	1
0.04200	-1
0.04567	-2
0.04933	-1
0.05300	-0
0.05667	-3
0.06033	-5
0.06400	-4
0.06767	-4
0.07133	-3
0.07500	-2
0.07867	-0
0.08233	2
0.08600	4
0.08967	6
0.09333	6
0.09700	5
0.10067	5
0.10433	4
0.10800	5
0.11167	5
0.11533	2
0.11900	2
0.12267	1
0.12633	-1
0.13000	-1
0.13367	1
0.13733	1
0.14100	1
0.14467	0
0.14833	1
0.15200	3
0.15567	3
0.15933	2
0.16300	-0
0.16667	-1
0.17033	0
0.17400	1
0.17767	1
0.18133	1
0.18500	1
0.18867	-0
0.19233	-0
0.19600	-0
0.19967	0
0.20333	2
0.20700	2
0.21067	3
0.21433	3
0.21800	2
0.22167	-1
0.22533	-3
0.22900	-3
0.23267	-1
0.23633	0
0.24000	0
0.24367	1
0.24733	1
0.25100	2
0.25467	3
0.25833	4
0.26200	5
0.26567	3
0.26933	2
0.27300	1
0.27667	2
0.28033	2
0.28400	2
0.28767	3
0.29133	4
0.29500	3
0.29867	5
0.30233	5
0.30600	4
0.30967	3
0.31333	2
0.31700	3
0.32067	4
0.32433	4
0.32800	4
0.33167	5
0.33533	5
0.33900	7
0.34267	7
0.34633	7
0.35000	6
0.35367	8
0.35733	9
0.36100	9
0.36467	11
0.36833	10
0.37200	9
0.37567	7
0.37933	5
0.38300	3
0.38667	3
0.39033	1
0.39400	-1
0.39767	-0
0.40133	1
0.40500	1
0.40867	4
0.41233	5
0.41600	4
0.41967	3
0.42333	3
0.42700	1
0.43067	1
0.43433	0
0.43800	-1
0.44167	-0
0.44533	-1
0.44900	-1
0.45267	2
0.45633	3
0.46000	2
0.46367	0
0.46733	-1
0.47100	-1
0.47467	-1
0.47833	-1
0.48200	-1
0.48567	-1
0.48933	-3
0.49300	-4
0.49667	-4
0.50033	-3
0.50400	-2
0.50767	-2
0.51133	-3
0.51500	-3
0.51867	-3
0.52233	-1
0.52600	0
0.52967	-0
0.53333	-1
0.53700	-1
0.54067	-2
0.54433	-2
0.54800	-3
0.55167	-3
0.55533	-1
0.55900	-1
0.56267	-2
0.56633	-3
0.57000	-3
0.57367	-4
0.57733	-4
0.58100	-3
0.58467	-2
0.58833	-2
0.59200	-4
0.59567	-5
0.59933	-6
0.60300	-6
0.60667	-4
0.61033	-1
0.61400	1
0.61767	3
0.62133	1
0.62500	-1
0.62867	-1
0.63233	0
0.63600	2
0.63967	2
0.64333	4
0.64700	3
0.65067	1
0.65433	0
0.65800	0
0.66167	-1
0.66533	-1
0.66900	-2
0.67267	-2
0.67633	-1
0.68000	-0
0.68367	1
0.68733	2
0.69100	2
0.69467	1
0.69833	-1
0.70200	-0
0.70567	0
0.70933	2
0.71300	4
0.71667	5
0.72033	5
0.72400	7
0.72767	9
0.73133	8
0.73500	6
0.73867	5
0.74233	5
0.74600	5
0.74967	6
0.75333	8
0.75700	9
0.76067	9
0.76433	9
0.76800	9
0.77167	7
0.77533	5
0.77900	3
0.78267	1
0.78633	0
0.79000	2
0.79367	4
0.79733	5
0.80100	5
0.80467	6
0.80833	7
0.81200	5
0.81567	4
0.81933	3
0.82300	1
0.82667	-0
0.83033	1
0.83400	2
0.83767	3
0.84133	5
0.84500	5
0.84867	3
0.85233	2
0.85600	3
0.85967	5
0.86333	7
0.86700	7
0.87067	7
0.87433	6
0.87800	5
0.88167	4
0.88533	4
0.88900	3
0.89267	2
0.89633	2
0.90000	3
0.90367	6
0.90733	10
0.91100	12
0.91467	11
0.91833	11
0.92200	11
0.92567	11
0.92933	10
0.93300	9
0.93667	8
0.94033	8
0.94400	10
0.94767	10
0.95133	8
0.95500	6
0.95867	7
0.96233	7
0.96600	6
0.96967	6
0.97333	7
0.97700	9
0.98067	11
0.98433	11
0.98800	11
0.99167	13
0.99533	15
0.99900	16
1.00267	16
1.00633	15
1.01000	12
1.01367	10
1.01733	9
1.02100	9
1.02467	9
1.02833	9
1.03200	8
1.03567	9
1.03933	11
1.04300	13
1.04667	14
1.05033	13
1.05400	13
1.05767	13
1.06133	13
1.06500	13
1.06867	12
1.07233	11
1.07600	12
1.07967	11
1.08333	9
1.08700	8
1.09067	7
1.09433	6
1.09800	8
1.10167	11
1.10533	13
1.10900	14
1.11267	14
1.11633	16
1.12000	16
1.12367	16
1.12733	16
1.13100	15
1.13467	16
1.13833	19
1.14200	21
1.14567	20
1.14933	18
1.15300	17
1.15667	17
1.16033	15
1.16400	14
1.16767	16
1.17133	16
1.17500	15
1.17867	14
1.18233	13
1.18600	14
1.18967	14
1.19333	15
1.19700	16
1.20067	17
1.20433	17
1.20800	17
1.21167	14
1.21533	11
1.21900	9
1.22267	10
1.22633	11
1.23000	13
1.23367	15
1.23733	16
1.24100	18
1.24467	20
1.24833	20
1.25200	20
1.25567	18
1.25933	17
1.26300	17
1.26667	18
1.27033	18
1.27400	19
1.27767	18
1.28133	18
1.28500	19
1.28867	18
1.29233	17
1.29600	16
1.29967	15
1.30333	14
1.30700	13
1.31067	14
1.31433	15
1.31800	15
1.32167	14
1.32533	14
1.32900	15
1.33267	15
1.33633	15
1.34000	16
1.34367	16
1.34733	16
1.35100	17
1.35467	18
1.35833	18
1.36200	18
1.36567	17
1.36933	16
1.37300	17
1.37667	18
1.38033	18
1.38400	18
1.38767	18
1.39133	17
1.39500	17
1.39867	16
1.40233	17
1.40600	18
1.40967	18
1.41333	18
1.41700	20
1.42067	19
1.42433	22
1.42800	24
1.43167	24
1.43533	24
1.43900	23
1.44267	22
1.44633	21
1.45000	17
1.45367	15
1.45733	15
1.46100	14
1.46467	14
1.46833	14
1.47200	13
1.47567	14
1.47933	15
1.48300	16
1.48667	17
1.49033	19
1.49400	21
1.49767	23
1.50133	25
1.50500	26
1.50867	26
1.51233	24
1.51600	24
1.51967	24
1.52333	23
1.52700	22
1.53067	21
1.53433	19
1.53800	18
1.54167	18
1.54533	18
1.54900	19
1.55267	20
1.55633	21
1.56000	21
1.56367	22
1.56733	23
1.57100	25
1.57467	27
1.57833	26
1.58200	23
1.58567	22
1.58933	22
1.59300	22
1.59667	22
1.60033	23
1.60400	23
1.60767	24
1.61133	26
1.61500	27
1.61867	27
1.62233	26
1.62600	26
1.62967	26
1.63333	25
1.63700	26
1.64067	27
1.64433	29
1.64800	31
1.65167	31
1.65533	31
1.65900	33
1.66267	34
1.66633	34
1.67000	34
1.67367	36
1.67733	37
1.68100	38
1.68467	39
1.68833	40
1.69200	40
1.69567	40
1.69933	39
1.70300	41
1.70667	44
1.71033	45
1.71400	45
1.71767	43
1.72133	41
1.72500	38
1.72867	38
1.73233	39
1.73600	39
1.73967	41
1.74333	41
1.74700	42
1.75067	44
1.75433	45
1.75800	45
1.76167	46
1.76533	47
1.76900	44
1.77267	44
1.77633	43
1.78000	43
1.78367	42
1.78733	43
1.79100	45
1.79467	48
1.79833	50
1.80200	52
1.80567	52
1.80933	51
1.81300	51
1.81667	52
1.82033	52
1.82400	54
1.82767	53
1.83133	52
1.83500	51
1.83867	52
1.84233	53
1.84600	55
1.84967	57
1.85333	59
1.85700	59
1.86067	60
1.86433	62
1.86800	64
1.87167	63
1.87533	62
1.87900	61
1.88267	62
1.88633	63
1.89000	66
1.89367	68
1.89733	68
1.90100	69
1.90467	70
1.90833	72
1.91200	74
1.91567	76
1.91933	76
1.92300	76
1.92667	75
1.93033	75
1.93400	75
1.93767	77
1.94133	80
1.94500	83
1.94867	86
1.95233	85
1.95600	85
1.95967	86
1.96333	86
1.96700	87
1.97067	89
1.97433	90
1.97800	89
1.98167	88
1.98533	87
1.98900	87
1.99267	89
1.99633	91
2.00000	90
2.00367	91
2.00733	91
2.01100	92
2.01467	92
2.01833	92
2.02200	94
2.02567	97
2.02933	100
2.03300	103
2.03667	108
2.04033	109
2.04400	109
2.04767	109
2.05133	110
2.05500	112
2.05867	114
2.06233	118
2.06600	119
2.06967	122
2.07333	124
2.07700	124
2.08067	123
2.08433	124
2.08800	125
2.09167	127
2.09533	128
2.09900	128
2.10267	130
2.10633	133
2.11000	134
2.11367	134
2.11733	136
2.12100	138
2.12467	137
2.12833	136
2.13200	135
2.13567	136
2.13933	139
2.14300	141
2.14667	144
2.15033	145
2.15400	146
2.15767	148
2.16133	151
2.16500	153
2.16867	156
2.17233	159
2.17600	161
2.17967	165
2.18333	167
2.18700	166
2.19067	165
2.19433	166
2.19800	166
2.20167	167
2.20533	166
2.20900	166
2.21267	167
2.21633	171
2.22000	175
2.22367	176
2.22733	177
2.23100	178
2.23467	180
2.23833	183
2.24200	185
2.24567	186
2.24933	188
2.25300	189
2.25667	190
2.26033	191
2.26400	193
2.26767	194
2.27133	195
2.27500	194
2.27867	196
2.28233	198
2.28600	198
2.28967	197
2.29333	196
2.29700	197
2.30067	199
2.30433	203
2.30800	207
2.31167	209
2.31533	210
2.31900	209
2.32267	210
2.32633	213
2.33000	214
2.33367	214
2.33733	217
2.34100	221
2.34467	224
2.34833	226
2.35200	227
2.35567	229
2.35933	231
2.36300	231
2.36667	231
2.37033	230
2.37400	230
2.37767	233
2.38133	235
2.38500	234
2.38867	233
2.39233	235
2.39600	237
2.39967	239
2.40333	243
2.40700	248
2.41067	252
2.41433	254
2.41800	255
2.42167	254
2.42533	254
2.42900	256
2.43267	257
2.43633	257
2.44000	261
2.44367	319
2.44733	470
2.45100	631
2.45467	763
2.45833	838
2.46200	846
2.46567	817
2.46933	778
2.47300	750
2.47667	733
2.48033	715
2.48400	684
2.48767	637
2.49133	585
2.49500	539
2.49867	501
2.50233	472
2.50600	456
2.50967	451
2.51333	458
2.51700	476
2.52067	498
2.52433	518
2.52800	529
2.53167	527
2.53533	512
2.53900	487
2.54267	456
2.54633	422
2.55000	391
2.55367	364
2.55733	344
2.56100	328
2.56467	313
2.56833	304
2.57200	300
2.57567	298
2.57933	296
2.58300	294
2.58667	296
2.59033	297
2.59400	300
2.59767	302
2.60133	302
2.60500	302
2.60867	301
2.61233	299
2.61600	296
2.61967	291
2.62333	286
2.62700	279
2.63067	272
2.63433	264
2.63800	255
2.64167	248
2.64533	239
2.64900	229
2.65267	216
2.65633	204
2.66000	192
2.66367	180
2.66733	170
2.67100	160
2.67467	150
2.67833	144
2.68200	139
2.68567	134
2.68933	132
2.69300	129
2.69667	128
2.70033	128
2.70400	131
2.70767	135
2.71133	138
2.71500	141
2.71867	143
2.72233	143
2.72600	145
2.72967	148
2.73333	151
2.73700	155
2.74067	159
2.74433	162
2.74800	163
2.75167	164
2.75533	167
2.75900	171
2.76267	173
2.76633	177
2.77000	180
2.77367	183
2.77733	185
2.78100	186
2.78467	187
2.78833	191
2.79200	195
2.79567	198
2.79933	201
2.80300	206
2.80667	214
2.81033	222
2.81400	231
2.81767	244
2.82133	266
2.82500	314
2.82867	418
2.83233	626
2.83600	998
2.83967	1598
2.84333	2473
2.84700	3643
2.85067	5090
2.85433	6742
2.85800	8500
2.86167	10236
2.86533	11816
2.86900	13117
2.87267	14049
2.87633	14570
2.88000	14680
2.88367	14421
2.88733	13859
2.89100	13082
2.89467	12165
2.89833	11170
2.90200	10152
2.90567	9155
2.90933	8205
2.91300	7314
2.91667	6493
2.92033	5745
2.92400	5072
2.92767	4470
2.93133	3934
2.93500	3461
2.93867	3044
2.94233	2677
2.94600	2352
2.94967	2069
2.95333	1821
2.95700	1603
2.96067	1415
2.96433	1252
2.96800	1111
2.97167	988
2.97533	880
2.97900	786
2.98267	705
2.98633	635
2.99000	575
2.99367	524
2.99733	479
3.00100	440
3.00467	407
3.00833	377
3.01200	352
3.01567	330
3.01933	313
3.02300	298
3.02667	284
3.03033	272
3.03400	261
3.03767	251
3.04133	243
3.04500	236
3.04867	232
3.05233	230
3.05600	228
3.05967	226
3.06333	223
3.06700	221
3.07067	218
3.07433	215
3.07800	216
3.08167	215
3.08533	212
3.08900	209
3.09267	208
3.09633	207
3.10000	205
3.10367	205
3.10733	204
3.11100	206
3.11467	206
3.11833	207
3.12200	206
3.12567	205
3.12933	205
3.13300	205
3.13667	206
3.14033	206
3.14400	205
3.14767	203
3.15133	199
3.15500	197
3.15867	198
3.16233	203
3.16600	214
3.16967	235
3.17333	265
3.17700	303
3.18067	347
3.18433	393
3.18800	441
3.19167	489
3.19533	532
3.19900	570
3.20267	604
3.20633	635
3.21000	661
3.21367	683
3.21733	702
3.22100	718
3.22467	731
3.22833	744
3.23200	757
3.23567	768
3.23933	777
3.24300	786
3.24667	791
3.25033	797
3.25400	803
3.25767	809
3.26133	815
3.26500	823
3.26867	832
3.27233	840
3.27600	847
3.27967	853
3.28333	861
3.28700	868
3.29067	871
3.29433	875
3.29800	879
3.30167	883
3.30533	890
3.30900	898
3.31267	905
3.31633	913
3.32000	920
3.32367	924
3.32733	927
3.33100	931
3.33467	933
3.33833	937
3.34200	942
3.34567	946
3.34933	950
3.35300	952
3.35667	954
3.36033	956
3.36400	958
3.36767	961
3.37133	962
3.37500	962
3.37867	962
3.38233	961
3.38600	959
3.38967	958
3.39333	960
3.39700	958
3.40067	955
3.40433	952
3.40800	950
3.41167	946
3.41533	941
3.41900	936
3.42267	932
3.42633	931
3.43000	930
3.43367	930
3.43733	929
3.44100	925
3.44467	923
3.44833	922
3.45200	920
3.45567	915
3.45933	912
3.46300	909
3.46667	905
3.47033	902
3.47400	902
3.47767	902
3.48133	900
3.48500	896
3.48867	892
3.49233	889
3.49600	887
3.49967	886
3.50333	884
3.50700	883
3.51067	879
3.51433	876
3.51800	875
3.52167	874
3.52533	874
3.52900	873
3.53267	873
3.53633	872
3.54000	871
3.54367	872
3.54733	875
3.55100	876
3.55467	876
3.55833	875
3.56200	875
3.56567	875
3.56933	876
3.57300	874
3.57667	874
3.58033	873
3.58400	874
3.58767	872
3.59133	872
3.59500	870
3.59867	870
3.60233	870
3.60600	870
3.60967	869
3.61333	867
3.61700	866
3.62067	863
3.62433	859
3.62800	856
3.63167	853
3.63533	850
3.63900	848
3.64267	849
3.64633	849
3.65000	848
3.65367	845
3.65733	842
3.66100	838
3.66467	837
3.66833	833
3.67200	828
3.67567	825
3.67933	823
3.68300	823
3.68667	822
3.69033	820
3.69400	816
3.69767	814
3.70133	813
3.70500	813
3.70867	813
3.71233	811
3.71600	808
3.71967	807
3.72333	805
3.72700	802
3.73067	799
3.73433	796
3.73800	795
3.74167	795
3.74533	792
3.74900	789
3.75267	787
3.75633	785
3.76000	781
3.76367	778
3.76733	775
3.77100	771
3.77467	766
3.77833	764
3.78200	764
3.78567	764
3.78933	763
3.79300	762
3.79667	760
3.80033	759
3.80400	755
3.80767	749
3.81133	743
3.81500	739
3.81867	736
3.82233	734
3.82600	733
3.82967	731
3.83333	728
3.83700	726
3.84067	725
3.84433	722
3.84800	721
3.85167	721
3.85533	718
3.85900	715
3.86267	711
3.86633	707
3.87000	703
3.87367	699
3.87733	698
3.88100	695
3.88467	692
3.88833	690
3.89200	690
3.89567	690
3.89933	686
3.90300	682
3.90667	678
3.91033	677
3.91400	677
3.91767	676
3.92133	675
3.92500	674
3.92867	675
3.93233	673
3.93600	672
3.93967	670
3.94333	668
3.94700	666
3.95067	662
3.95433	657
3.95800	654
3.96167	653
3.96533	650
3.96900	649
3.97267	648
3.97633	647
3.98000	647
3.98367	647
3.98733	646
3.99100	645
3.99467	644
3.99833	639

[Status Trace (Column Oven Temperature)]
Interval(msec)	1000
# of Points	240
Start Time(min)	0.014
End Time(min)	3.998
Intensity Units	
Intensity Multiplier	1
R.Time (min)	Intensity
0.01447	35.03
0.03113	35.04
0.04780	35.04
0.06447	35.04
0.08113	35.03
0.09780	35.02
0.11447	35.02
0.13113	35.01
0.14780	35.01
0.16447	35.00
0.18113	35.00
0.19780	34.99
0.21447	34.99
0.23113	35.00
0.24780	35.01
0.26447	35.02
0.28113	35.04
0.29780	35.04
0.31447	35.03
0.33113	35.03
0.34780	35.03
0.36447	35.03
0.38113	35.02
0.39780	35.02
0.41447	35.01
0.43113	35.01
0.44780	35.00
0.46447	34.98
0.48113	34.97
0.49780	34.97
0.51447	34.97
0.53113	34.97
0.54780	34.97
0.56447	34.98
0.58113	34.98
0.59780	34.99
0.61447	35.00
0.63113	35.01
0.64780	35.01
0.66447	35.01
0.68113	35.01
0.69780	35.02
0.71447	35.02
0.73113	35.01
0.74780	35.00
0.76447	35.00
0.78113	35.00
0.79780	34.99
0.81447	34.98
0.83113	34.98
0.84780	34.98
0.86447	35.00
0.88113	35.02
0.89780	35.03
0.91447	35.04
0.93113	35.05
0.94780	35.05
0.96447	35.05
0.98113	35.04
0.99780	35.03
1.01447	35.00
1.03113	35.00
1.04780	35.00
1.06447	35.01
1.08113	35.01
1.09780	35.01
1.11447	35.00
1.13113	34.99
1.14780	34.98
1.16447	34.98
1.18113	34.99
1.19780	34.99
1.21447	34.99
1.23113	34.99
1.24780	35.00
1.26447	34.99
1.28113	34.99
1.29780	34.99
1.31447	35.01
1.33113	35.01
1.34780	35.03
1.36447	35.03
1.38113	35.03
1.39780	35.02
1.41447	35.02
1.43113	35.01
1.44780	35.00
1.46447	35.00
1.48113	34.98
1.49780	34.99
1.51447	35.00
1.53113	35.01
1.54780	35.02
1.56447	35.02
1.58113	35.02
1.59780	35.05
1.61447	35.13
1.63113	35.28
1.64780	35.49
1.66447	35.75
1.68113	36.10
1.69780	36.46
1.71447	36.79
1.73113	37.14
1.74780	37.48
1.76447	37.79
1.78113	38.14
1.79780	38.48
1.81447	38.80
1.83113	39.13
1.84780	39.47
1.86447	39.78
1.88113	40.10
1.89780	40.45
1.91447	40.77
1.93113	41.11
1.94780	41.45
1.96447	41.76
1.98113	42.08
1.99780	42.42
2.01447	42.75
2.03113	43.06
2.04780	43.40
2.06447	43.74
2.08113	44.06
2.09780	44.38
2.11447	44.72
2.13113	45.03
2.14780	45.37
2.16447	45.70
2.18113	46.02
2.19780	46.35
2.21447	46.66
2.23113	47.00
2.24780	47.32
2.26447	47.65
2.28113	48.00
2.29780	48.30
2.31447	48.64
2.33113	48.98
2.34780	49.26
2.36447	49.52
2.38113	49.68
2.39780	49.70
2.41447	49.68
2.43113	49.71
2.44780	49.70
2.46447	49.70
2.48113	49.72
2.49780	49.72
2.51447	49.73
2.53113	49.74
2.54780	49.76
2.56447	49.79
2.58113	49.80
2.59780	49.83
2.61447	49.82
2.63113	49.83
2.64780	49.84
2.66447	49.84
2.68113	49.87
2.69780	49.87
2.71447	49.86
2.73113	49.84
2.74780	49.86
2.76447	49.87
2.78113	49.88
2.79780	49.88
2.81447	49.88
2.83113	49.89
2.84780	49.88
2.86447	49.88
2.88113	49.90
2.89780	49.91
2.91447	49.91
2.93113	49.92
2.94780	49.94
2.96447	49.95
2.98113	49.96
2.99780	49.97
3.01447	49.98
3.03113	50.01
3.04780	50.02
3.06447	50.03
3.08113	50.04
3.09780	50.04
3.11447	50.05
3.13113	50.06
3.14780	50.06
3.16447	50.07
3.18113	50.07
3.19780	50.06
3.21447	50.05
3.23113	50.07
3.24780	50.07
3.26447	50.08
3.28113	50.08
3.29780	50.09
3.31447	50.09
3.33113	50.10
3.34780	50.11
3.36447	50.13
3.38113	50.13
3.39780	50.12
3.41447	50.09
3.43113	50.08
3.44780	50.07
3.46447	50.06
3.48113	50.05
3.49780	50.03
3.51447	50.02
3.53113	50.02
3.54780	50.02
3.56447	50.03
3.58113	50.03
3.59780	50.03
3.61447	50.03
3.63113	50.01
3.64780	50.01
3.66447	50.00
3.68113	50.00
3.69780	50.00
3.71447	50.00
3.73113	50.00
3.74780	49.99
3.76447	50.01
3.78113	50.02
3.79780	50.04
3.81447	50.05
3.83113	50.05
3.84780	50.04
3.86447	50.04
3.88113	50.03
3.89780	50.04
3.91447	50.04
3.93113	50.04
3.94780	50.04
3.96447	50.03
3.98113	50.02
3.99780	50.02

[Status Trace (Injection Unit Temperature)]
Interval(msec)	1000
# of Points	240
Start Time(min)	0.014
End Time(min)	3.998
Intensity Units	
Intensity Multiplier	1
R.Time (min)	Intensity
0.01447	99.98
0.03113	99.99
0.04780	99.99
0.06447	99.99
0.08113	99.99
0.09780	99.98
0.11447	99.99
0.13113	99.99
0.14780	99.98
0.16447	99.99
0.18113	99.99
0.19780	99.99
0.21447	99.99
0.23113	99.99
0.24780	99.99
0.26447	99.99
0.28113	99.99
0.29780	99.98
0.31447	99.99
0.33113	99.99
0.34780	99.98
0.36447	99.98
0.38113	99.99
0.39780	99.98
0.41447	99.98
0.43113	99.98
0.44780	99.98
0.46447	99.99
0.48113	99.99
0.49780	99.98
0.51447	99.99
0.53113	99.99
0.54780	99.99
0.56447	99.99
0.58113	99.98
0.59780	99.98
0.61447	99.99
0.63113	99.98
0.64780	99.98
0.66447	99.98
0.68113	99.98
0.69780	99.98
0.71447	99.99
0.73113	99.98
0.74780	99.98
0.76447	99.98
0.78113	99.98
0.79780	99.98
0.81447	99.98
0.83113	99.98
0.84780	99.98
0.86447	99.98
0.88113	99.98
0.89780	99.97
0.91447	99.98
0.93113	99.98
0.94780	99.98
0.96447	99.98
0.98113	99.97
0.99780	99.98
1.01447	99.98
1.03113	99.98
1.04780	99.98
1.06447	99.98
1.08113	99.98
1.09780	99.98
1.11447	99.98
1.13113	99.98
1.14780	99.98
1.16447	99.98
1.18113	99.98
1.19780	99.98
1.21447	99.98
1.23113	99.98
1.24780	99.99
1.26447	99.97
1.28113	99.98
1.29780	99.98
1.31447	99.98
1.33113	99.98
1.34780	99.98
1.36447	99.98
1.38113	99.98
1.39780	99.98
1.41447	99.98
1.43113	99.98
1.44780	99.98
1.46447	99.98
1.48113	99.98
1.49780	99.98
1.51447	99.99
1.53113	99.99
1.54780	99.99
1.56447	99.98
1.58113	99.98
1.59780	99.98
1.61447	99.98
1.63113	99.98
1.64780	99.98
1.66447	99.99
1.68113	99.98
1.69780	99.98
1.71447	99.98
1.73113	99.98
1.74780	99.98
1.76447	99.98
1.78113	99.98
1.79780	99.98
1.81447	99.98
1.83113	99.98
1.84780	99.98
1.86447	99.98
1.88113	99.98
1.89780	99.98
1.91447	99.98
1.93113	99.98
1.94780	99.98
1.96447	99.97
1.98113	99.97
1.99780	99.97
2.01447	99.97
2.03113	99.97
2.04780	99.97
2.06447	99.97
2.08113	99.96
2.09780	99.97
2.11447	99.97
2.13113	99.97
2.14780	99.97
2.16447	99.97
2.18113	99.97
2.19780	99.97
2.21447	99.96
2.23113	99.97
2.24780	99.97
2.26447	99.97
2.28113	99.97
2.29780	99.96
2.31447	99.96
2.33113	99.97
2.34780	99.96
2.36447	99.97
2.38113	99.97
2.39780	99.96
2.41447	99.97
2.43113	99.97
2.44780	99.97
2.46447	99.97
2.48113	99.97
2.49780	99.97
2.51447	99.97
2.53113	99.97
2.54780	99.97
2.56447	99.98
2.58113	99.98
2.59780	99.97
2.61447	99.98
2.63113	99.98
2.64780	99.98
2.66447	99.98
2.68113	99.98
2.69780	99.99
2.71447	99.99
2.73113	99.99
2.74780	99.99
2.76447	99.99
2.78113	99.99
2.79780	100.00
2.81447	100.00
2.83113	100.00
2.84780	100.00
2.86447	100.01
2.88113	100.00
2.89780	100.01
2.91447	100.01
2.93113	100.00
2.94780	100.00
2.96447	100.01
2.98113	100.02
2.99780	100.01
3.01447	100.00
3.03113	100.01
3.04780	100.02
3.06447	100.02
3.08113	100.02
3.09780	100.02
3.11447	100.02
3.13113	100.02
3.14780	100.02
3.16447	100.02
3.18113	100.02
3.19780	100.03
3.21447	100.02
3.23113	100.03
3.24780	100.02
3.26447	100.03
3.28113	100.03
3.29780	100.03
3.31447	100.03
3.33113	100.03
3.34780	100.04
3.36447	100.04
3.38113	100.04
3.39780	100.03
3.41447	100.04
3.43113	100.04
3.44780	100.03
3.46447	100.03
3.48113	100.04
3.49780	100.03
3.51447	100.04
3.53113	100.04
3.54780	100.04
3.56447	100.04
3.58113	100.04
3.59780	100.04
3.61447	100.04
3.63113	100.04
3.64780	100.04
3.66447	100.04
3.68113	100.04
3.69780	100.04
3.71447	100.04
3.73113	100.04
3.74780	100.04
3.76447	100.04
3.78113	100.04
3.79780	100.04
3.81447	100.04
3.83113	100.04
3.84780	100.04
3.86447	100.04
3.88113	100.04
3.89780	100.03
3.91447	100.04
3.93113	100.03
3.94780	100.04
3.96447	100.03
3.98113	100.03
3.99780	100.04

[Status Trace (Carrier Gas Pressure)]
Interval(msec)	1000
# of Points	240
Start Time(min)	0.014
End Time(min)	3.998
Intensity Units	
Intensity Multiplier	1
R.Time (min)	Intensity
0.01447	57.47
0.03113	55.57
0.04780	58.04
0.06447	59.84
0.08113	58.65
0.09780	57.98
0.11447	58.00
0.13113	58.01
0.14780	58.01
0.16447	58.00
0.18113	58.00
0.19780	58.00
0.21447	58.00
0.23113	58.00
0.24780	58.00
0.26447	58.00
0.28113	58.00
0.29780	58.00
0.31447	58.00
0.33113	58.00
0.34780	58.00
0.36447	58.00
0.38113	58.00
0.39780	58.00
0.41447	58.00
0.43113	58.00
0.44780	58.00
0.46447	58.00
0.48113	58.00
0.49780	58.00
0.51447	58.00
0.53113	58.00
0.54780	58.00
0.56447	58.00
0.58113	58.00
0.59780	58.00
0.61447	58.00
0.63113	58.00
0.64780	58.00
0.66447	58.00
0.68113	58.00
0.69780	58.00
0.71447	58.00
0.73113	58.00
0.74780	58.00
0.76447	58.00
0.78113	58.00
0.79780	58.00
0.81447	58.00
0.83113	58.00
0.84780	58.00
0.86447	58.00
0.88113	58.00
0.89780	58.00
0.91447	58.00
0.93113	58.00
0.94780	58.00
0.96447	58.00
0.98113	58.00
0.99780	58.00
1.01447	58.00
1.03113	58.00
1.04780	58.00
1.06447	58.00
1.08113	58.00
1.09780	58.00
1.11447	58.00
1.13113	58.00
1.14780	58.00
1.16447	58.00
1.18113	58.00
1.19780	58.00
1.21447	58.00
1.23113	58.00
1.24780	58.00
1.26447	58.00
1.28113	58.00
1.29780	58.00
1.31447	58.00
1.33113	58.00
1.34780	58.00
1.36447	58.00
1.38113	58.00
1.39780	58.00
1.41447	58.00
1.43113	58.00
1.44780	58.00
1.46447	58.00
1.48113	58.00
1.49780	58.00
1.51447	58.00
1.53113	58.00
1.54780	58.00
1.56447	58.00
1.58113	58.00
1.59780	58.00
1.61447	58.00
1.63113	58.00
1.64780	58.00
1.66447	58.00
1.68113	58.01
1.69780	58.00
1.71447	58.00
1.73113	58.00
1.74780	58.00
1.76447	58.00
1.78113	58.00
1.79780	58.00
1.81447	58.00
1.83113	58.00
1.84780	58.00
1.86447	58.00
1.88113	58.00
1.89780	58.00
1.91447	58.00
1.93113	58.00
1.94780	58.00
1.96447	58.00
1.98113	58.00
1.99780	58.00
2.01447	58.00
2.03113	58.00
2.04780	58.00
2.06447	58.00
2.08113	58.00
2.09780	58.00
2.11447	58.00
2.13113	58.00
2.14780	58.00
2.16447	58.00
2.18113	58.00
2.19780	58.00
2.21447	58.00
2.23113	58.00
2.24780	58.00
2.26447	58.00
2.28113	58.00
2.29780	58.00
2.31447	58.00
2.33113	58.00
2.34780	58.00
2.36447	58.00
2.38113	58.00
2.39780	57.99
2.41447	57.99
2.43113	58.00
2.44780	58.00
2.46447	58.00
2.48113	58.00
2.49780	58.00
2.51447	58.00
2.53113	57.99
2.54780	58.00
2.56447	58.00
2.58113	58.00
2.59780	58.00
2.61447	58.00
2.63113	58.00
2.64780	58.00
2.66447	58.00
2.68113	58.00
2.69780	58.00
2.71447	58.00
2.73113	58.00
2.74780	58.00
2.76447	58.00
2.78113	58.00
2.79780	58.00
2.81447	58.00
2.83113	58.00
2.84780	58.00
2.86447	58.00
2.88113	58.00
2.89780	58.00
2.91447	58.00
2.93113	58.00
2.94780	58.00
2.96447	58.00
2.98113	58.00
2.99780	58.00
3.01447	58.00
3.03113	58.00
3.04780	58.00
3.06447	58.00
3.08113	58.00
3.09780	58.00
3.11447	58.00
3.13113	58.00
3.14780	58.00
3.16447	58.00
3.18113	58.00
3.19780	58.00
3.21447	58.00
3.23113	58.00
3.24780	58.00
3.26447	58.00
3.28113	58.00
3.29780	58.00
3.31447	58.00
3.33113	58.00
3.34780	58.00
3.36447	58.00
3.38113	58.00
3.39780	58.00
3.41447	58.00
3.43113	58.00
3.44780	58.00
3.46447	58.00
3.48113	58.00
3.49780	58.00
3.51447	58.00
3.53113	58.00
3.54780	58.00
3.56447	58.00
3.58113	58.00
3.59780	58.00
3.61447	58.00
3.63113	58.00
3.64780	58.00
3.66447	58.00
3.68113	58.00
3.69780	58.00
3.71447	58.00
3.73113	58.00
3.74780	58.00
3.76447	58.00
3.78113	58.00
3.79780	58.00
3.81447	58.00
3.83113	58.00
3.84780	58.00
3.86447	58.00
3.88113	58.00
3.89780	58.00
3.91447	58.00
3.93113	58.00
3.94780	58.00
3.96447	58.00
3.98113	58.00
3.99780	58.00

[Status Trace (Carrier Gas Flow)]
Interval(msec)	1000
# of Points	240
Start Time(min)	0.014
End Time(min)	3.998
Intensity Units	
Intensity Multiplier	1
R.Time (min)	Intensity
0.01447	34.08
0.03113	34.54
0.04780	34.54
0.06447	34.52
0.08113	34.51
0.09780	34.51
0.11447	34.51
0.13113	34.52
0.14780	34.52
0.16447	34.52
0.18113	34.52
0.19780	34.52
0.21447	34.52
0.23113	34.52
0.24780	34.52
0.26447	34.52
0.28113	34.52
0.29780	34.51
0.31447	34.52
0.33113	34.52
0.34780	34.52
0.36447	34.52
0.38113	34.52
0.39780	34.52
0.41447	34.52
0.43113	34.52
0.44780	34.52
0.46447	34.52
0.48113	34.52
0.49780	34.52
0.51447	34.52
0.53113	34.52
0.54780	34.52
0.56447	34.52
0.58113	34.52
0.59780	34.52
0.61447	34.52
0.63113	34.52
0.64780	34.52
0.66447	34.52
0.68113	34.51
0.69780	34.51
0.71447	34.52
0.73113	34.52
0.74780	34.52
0.76447	34.52
0.78113	34.52
0.79780	34.52
0.81447	34.52
0.83113	34.52
0.84780	34.52
0.86447	34.52
0.88113	34.52
0.89780	34.52
0.91447	34.52
0.93113	34.52
0.94780	34.52
0.96447	34.52
0.98113	34.52
0.99780	34.52
1.01447	34.52
1.03113	34.51
1.04780	34.53
1.06447	34.51
1.08113	34.52
1.09780	34.52
1.11447	34.52
1.13113	34.52
1.14780	34.52
1.16447	34.52
1.18113	34.52
1.19780	34.52
1.21447	34.51
1.23113	34.52
1.24780	34.52
1.26447	34.52
1.28113	34.52
1.29780	34.52
1.31447	34.52
1.33113	34.52
1.34780	34.52
1.36447	34.53
1.38113	34.53
1.39780	34.53
1.41447	34.53
1.43113	34.51
1.44780	34.52
1.46447	34.52
1.48113	34.51
1.49780	34.52
1.51447	34.52
1.53113	34.52
1.54780	34.52
1.56447	34.52
1.58113	34.52
1.59780	34.52
1.61447	34.52
1.63113	34.52
1.64780	34.52
1.66447	34.52
1.68113	34.52
1.69780	34.52
1.71447	34.52
1.73113	34.52
1.74780	34.52
1.76447	34.52
1.78113	34.52
1.79780	34.51
1.81447	34.52
1.83113	34.52
1.84780	34.52
1.86447	34.52
1.88113	34.52
1.89780	34.52
1.91447	34.52
1.93113	34.52
1.94780	34.51
1.96447	34.52
1.98113	34.52
1.99780	34.52
2.01447	34.52
2.03113	34.52
2.04780	34.52
2.06447	34.52
2.08113	34.52
2.09780	34.52
2.11447	34.52
2.13113	34.52
2.14780	34.52
2.16447	34.52
2.18113	34.52
2.19780	34.52
2.21447	34.52
2.23113	34.52
2.24780	34.52
2.26447	34.52
2.28113	34.51
2.29780	34.52
2.31447	34.52
2.33113	34.52
2.34780	34.52
2.36447	34.52
2.38113	34.52
2.39780	34.52
2.41447	34.52
2.43113	34.52
2.44780	34.51
2.46447	34.52
2.48113	34.52
2.49780	34.52
2.51447	34.51
2.53113	34.52
2.54780	34.52
2.56447	34.52
2.58113	34.52
2.59780	34.52
2.61447	34.52
2.63113	34.52
2.64780	34.52
2.66447	34.52
2.68113	34.52
2.69780	34.52
2.71447	34.52
2.73113	34.52
2.74780	34.52
2.76447	34.52
2.78113	34.52
2.79780	34.52
2.81447	34.52
2.83113	34.52
2.84780	34.52
2.86447	34.52
2.88113	34.52
2.89780	34.52
2.91447	34.52
2.93113	34.52
2.94780	34.52
2.96447	34.52
2.98113	34.51
2.99780	34.52
3.01447	34.52
3.03113	34.52
3.04780	34.52
3.06447	34.52
3.08113	34.52
3.09780	34.52
3.11447	34.52
3.13113	34.52
3.14780	34.52
3.16447	34.52
3.18113	34.52
3.19780	34.52
3.21447	34.52
3.23113	34.52
3.24780	34.52
3.26447	34.52
3.28113	34.51
3.29780	34.52
3.31447	34.52
3.33113	34.52
3.34780	34.52
3.36447	34.52
3.38113	34.52
3.39780	34.52
3.41447	34.52
3.43113	34.52
3.44780	34.52
3.46447	34.52
3.48113	34.52
3.49780	34.52
3.51447	34.52
3.53113	34.52
3.54780	34.52
3.56447	34.52
3.58113	34.52
3.59780	34.52
3.61447	34.52
3.63113	34.52
3.64780	34.52
3.66447	34.51
3.68113	34.52
3.69780	34.52
3.71447	34.52
3.73113	34.52
3.74780	34.52
3.76447	34.52
3.78113	34.52
3.79780	34.52
3.81447	34.51
3.83113	34.52
3.84780	34.52
3.86447	34.52
3.88113	34.51
3.89780	34.52
3.91447	34.52
3.93113	34.51
3.94780	34.52
3.96447	34.52
3.98113	34.52
3.99780	34.53

[Status Trace (Column Flow)]
Interval(msec)	1000
# of Points	240
Start Time(min)	0.014
End Time(min)	3.998
Intensity Units	
Intensity Multiplier	1
R.Time (min)	Intensity
0.01447	5.47
0.03113	5.25
0.04780	5.54
0.06447	5.75
0.08113	5.61
0.09780	5.53
0.11447	5.54
0.13113	5.54
0.14780	5.54
0.16447	5.54
0.18113	5.54
0.19780	5.54
0.21447	5.54
0.23113	5.54
0.24780	5.54
0.26447	5.54
0.28113	5.54
0.29780	5.54
0.31447	5.54
0.33113	5.54
0.34780	5.54
0.36447	5.54
0.38113	5.54
0.39780	5.54
0.41447	5.54
0.43113	5.54
0.44780	5.54
0.46447	5.54
0.48113	5.54
0.49780	5.54
0.51447	5.54
0.53113	5.54
0.54780	5.54
0.56447	5.54
0.58113	5.54
0.59780	5.54
0.61447	5.54
0.63113	5.54
0.64780	5.54
0.66447	5.54
0.68113	5.54
0.69780	5.54
0.71447	5.54
0.73113	5.54
0.74780	5.54
0.76447	5.54
0.78113	5.54
0.79780	5.54
0.81447	5.54
0.83113	5.54
0.84780	5.54
0.86447	5.54
0.88113	5.54
0.89780	5.54
0.91447	5.54
0.93113	5.54
0.94780	5.54
0.96447	5.54
0.98113	5.54
0.99780	5.54
1.01447	5.54
1.03113	5.54
1.04780	5.54
1.06447	5.54
1.08113	5.54
1.09780	5.54
1.11447	5.54
1.13113	5.54
1.14780	5.54
1.16447	5.54
1.18113	5.54
1.19780	5.54
1.21447	5.54
1.23113	5.54
1.24780	5.54
1.26447	5.54
1.28113	5.54
1.29780	5.54
1.31447	5.54
1.33113	5.54
1.34780	5.54
1.36447	5.54
1.38113	5.54
1.39780	5.54
1.41447	5.54
1.43113	5.54
1.44780	5.54
1.46447	5.54
1.48113	5.54
1.49780	5.54
1.51447	5.54
1.53113	5.54
1.54780	5.54
1.56447	5.54
1.58113	5.54
1.59780	5.54
1.61447	5.53
1.63113	5.53
1.64780	5.52
1.66447	5.51
1.68113	5.50
1.69780	5.49
1.71447	5.48
1.73113	5.47
1.74780	5.46
1.76447	5.45
1.78113	5.44
1.79780	5.43
1.81447	5.42
1.83113	5.41
1.84780	5.40
1.86447	5.39
1.88113	5.38
1.89780	5.37
1.91447	5.36
1.93113	5.35
1.94780	5.34
1.96447	5.33
1.98113	5.32
1.99780	5.31
2.01447	5.30
2.03113	5.29
2.04780	5.28
2.06447	5.27
2.08113	5.26
2.09780	5.25
2.11447	5.24
2.13113	5.23
2.14780	5.22
2.16447	5.21
2.18113	5.20
2.19780	5.20
2.21447	5.19
2.23113	5.18
2.24780	5.17
2.26447	5.16
2.28113	5.15
2.29780	5.14
2.31447	5.13
2.33113	5.12
2.34780	5.11
2.36447	5.11
2.38113	5.10
2.39780	5.10
2.41447	5.10
2.43113	5.10
2.44780	5.10
2.46447	5.10
2.48113	5.10
2.49780	5.10
2.51447	5.10
2.53113	5.10
2.54780	5.10
2.56447	5.10
2.58113	5.10
2.59780	5.10
2.61447	5.10
2.63113	5.10
2.64780	5.10
2.66447	5.10
2.68113	5.10
2.69780	5.10
2.71447	5.10
2.73113	5.10
2.74780	5.10
2.76447	5.10
2.78113	5.10
2.79780	5.10
2.81447	5.10
2.83113	5.10
2.84780	5.10
2.86447	5.10
2.88113	5.10
2.89780	5.10
2.91447	5.10
2.93113	5.10
2.94780	5.09
2.96447	5.09
2.98113	5.09
2.99780	5.09
3.01447	5.09
3.03113	5.09
3.04780	5.09
3.06447	5.09
3.08113	5.09
3.09780	5.09
3.11447	5.09
3.13113	5.09
3.14780	5.09
3.16447	5.09
3.18113	5.09
3.19780	5.09
3.21447	5.09
3.23113	5.09
3.24780	5.09
3.26447	5.09
3.28113	5.09
3.29780	5.09
3.31447	5.09
3.33113	5.09
3.34780	5.09
3.36447	5.09
3.38113	5.09
3.39780	5.09
3.41447	5.09
3.43113	5.09
3.44780	5.09
3.46447	5.09
3.48113	5.09
3.49780	5.09
3.51447	5.09
3.53113	5.09
3.54780	5.09
3.56447	5.09
3.58113	5.09
3.59780	5.09
3.61447	5.09
3.63113	5.09
3.64780	5.09
3.66447	5.09
3.68113	5.09
3.69780	5.09
3.71447	5.09
3.73113	5.09
3.74780	5.09
3.76447	5.09
3.78113	5.09
3.79780	5.09
3.81447	5.09
3.83113	5.09
3.84780	5.09
3.86447	5.09
3.88113	5.09
3.89780	5.09
3.91447	5.09
3.93113	5.09
3.94780	5.09
3.96447	5.09
3.98113	5.09
3.99780	5.09

[Status Trace (Linear Velocity)]
Interval(msec)	1000
# of Points	240
Start Time(min)	0.014
End Time(min)	3.998
Intensity Units	
Intensity Multiplier	1
R.Time (min)	Intensity
0.01447	38.67
0.03113	37.42
0.04780	39.04
0.06447	40.22
0.08113	39.44
0.09780	39.00
0.11447	39.02
0.13113	39.03
0.14780	39.02
0.16447	39.02
0.18113	39.02
0.19780	39.02
0.21447	39.02
0.23113	39.02
0.24780	39.02
0.26447	39.02
0.28113	39.02
0.29780	39.02
0.31447	39.02
0.33113	39.02
0.34780	39.02
0.36447	39.02
0.38113	39.02
0.39780	39.02
0.41447	39.02
0.43113	39.02
0.44780	39.02
0.46447	39.02
0.48113	39.02
0.49780	39.02
0.51447	39.02
0.53113	39.02
0.54780	39.02
0.56447	39.02
0.58113	39.02
0.59780	39.02
0.61447	39.02
0.63113	39.02
0.64780	39.02
0.66447	39.02
0.68113	39.02
0.69780	39.02
0.71447	39.02
0.73113	39.02
0.74780	39.02
0.76447	39.02
0.78113	39.02
0.79780	39.02
0.81447	39.02
0.83113	39.02
0.84780	39.02
0.86447	39.02
0.88113	39.02
0.89780	39.02
0.91447	39.02
0.93113	39.02
0.94780	39.02
0.96447	39.02
0.98113	39.02
0.99780	39.02
1.01447	39.02
1.03113	39.02
1.04780	39.02
1.06447	39.02
1.08113	39.02
1.09780	39.02
1.11447	39.02
1.13113	39.02
1.14780	39.02
1.16447	39.02
1.18113	39.02
1.19780	39.02
1.21447	39.02
1.23113	39.02
1.24780	39.02
1.26447	39.02
1.28113	39.02
1.29780	39.02
1.31447	39.02
1.33113	39.02
1.34780	39.02
1.36447	39.02
1.38113	39.02
1.39780	39.02
1.41447	39.02
1.43113	39.02
1.44780	39.02
1.46447	39.02
1.48113	39.02
1.49780	39.02
1.51447	39.02
1.53113	39.02
1.54780	39.02
1.56447	39.02
1.58113	39.02
1.59780	39.02
1.61447	39.01
1.63113	39.00
1.64780	38.98
1.66447	38.95
1.68113	38.92
1.69780	38.89
1.71447	38.85
1.73113	38.82
1.74780	38.78
1.76447	38.75
1.78113	38.73
1.79780	38.69
1.81447	38.66
1.83113	38.63
1.84780	38.60
1.86447	38.57
1.88113	38.54
1.89780	38.51
1.91447	38.47
1.93113	38.44
1.94780	38.41
1.96447	38.38
1.98113	38.35
1.99780	38.32
2.01447	38.29
2.03113	38.26
2.04780	38.23
2.06447	38.20
2.08113	38.17
2.09780	38.14
2.11447	38.11
2.13113	38.08
2.14780	38.05
2.16447	38.02
2.18113	37.99
2.19780	37.96
2.21447	37.93
2.23113	37.90
2.24780	37.87
2.26447	37.84
2.28113	37.81
2.29780	37.79
2.31447	37.76
2.33113	37.73
2.34780	37.70
2.36447	37.68
2.38113	37.66
2.39780	37.66
2.41447	37.66
2.43113	37.66
2.44780	37.66
2.46447	37.66
2.48113	37.66
2.49780	37.66
2.51447	37.66
2.53113	37.65
2.54780	37.66
2.56447	37.65
2.58113	37.65
2.59780	37.65
2.61447	37.65
2.63113	37.65
2.64780	37.65
2.66447	37.65
2.68113	37.65
2.69780	37.65
2.71447	37.65
2.73113	37.65
2.74780	37.65
2.76447	37.65
2.78113	37.65
2.79780	37.65
2.81447	37.65
2.83113	37.65
2.84780	37.65
2.86447	37.65
2.88113	37.65
2.89780	37.64
2.91447	37.64
2.93113	37.64
2.94780	37.64
2.96447	37.64
2.98113	37.64
2.99780	37.64
3.01447	37.64
3.03113	37.64
3.04780	37.63
3.06447	37.63
3.08113	37.63
3.09780	37.63
3.11447	37.63
3.13113	37.63
3.14780	37.63
3.16447	37.63
3.18113	37.63
3.19780	37.63
3.21447	37.63
3.23113	37.63
3.24780	37.63
3.26447	37.63
3.28113	37.63
3.29780	37.63
3.31447	37.63
3.33113	37.63
3.34780	37.63
3.36447	37.63
3.38113	37.62
3.39780	37.62
3.41447	37.63
3.43113	37.63
3.44780	37.63
3.46447	37.63
3.48113	37.63
3.49780	37.63
3.51447	37.63
3.53113	37.63
3.54780	37.63
3.56447	37.63
3.58113	37.63
3.59780	37.63
3.61447	37.63
3.63113	37.63
3.64780	37.64
3.66447	37.64
3.68113	37.64
3.69780	37.64
3.71447	37.64
3.73113	37.64
3.74780	37.64
3.76447	37.64
3.78113	37.63
3.79780	37.63
3.81447	37.63
3.83113	37.63
3.84780	37.63
3.86447	37.63
3.88113	37.63
3.89780	37.63
3.91447	37.63
3.93113	37.63
3.94780	37.63
3.96447	37.63
3.98113	37.63
3.99780	37.64

